##NAMES=Halite
##RRUFFID=R070292
##IDEAL CHEMISTRY=NaCl
##LOCALITY=Stassfurt, Stassfurt Deposit, Saxony-Anhalt, Germany
##OWNER=RRUFF
##SOURCE=Michael Scott
##DESCRIPTION=Blue to colorless cube
##STATUS=The identification of this mineral has been confirmed by X-ray diffraction.
##URL=rruff.info/R070292
##CELL PARAMETERS=a: 5.64167(4) b: 5.64167(4) c: 5.64167(4) alpha: 90 beta: 90 gamma: 90 volume: 179.565(4) crystal system: cubic
5, 26
5.01, 16
5.02, 22
5.03, 20
5.04, 19
5.05, 16
5.06, 22
5.07, 27
5.08, 21
5.09, 12
5.1, 19
5.11, 24
5.12, 20
5.13, 21
5.14, 16
5.15, 22
5.16, 14
5.17, 29
5.18, 28
5.19, 21
5.2, 30
5.21, 25
5.22, 17
5.23, 20
5.24, 25
5.25, 21
5.26, 17
5.27, 19
5.28, 19
5.29, 26
5.3, 16
5.31, 21
5.32, 24
5.33, 16
5.34, 19
5.35, 18
5.36, 26
5.37, 22
5.38, 20
5.39, 28
5.4, 17
5.41, 27
5.42, 19
5.43, 20
5.44, 21
5.45, 21
5.46, 15
5.47, 15
5.48, 21
5.49, 20
5.5, 21
5.51, 12
5.52, 13
5.53, 17
5.54, 18
5.55, 17
5.56, 19
5.57, 20
5.58, 22
5.59, 28
5.6, 24
5.61, 17
5.62, 17
5.63, 20
5.64, 17
5.65, 25
5.66, 21
5.67, 24
5.68, 16
5.69, 28
5.7, 20
5.71, 17
5.72, 23
5.73, 17
5.74, 23
5.75, 23
5.76, 19
5.77, 18
5.78, 14
5.79, 19
5.8, 27
5.81, 18
5.82, 24
5.83, 22
5.84, 13
5.85, 15
5.86, 19
5.87, 25
5.88, 23
5.89, 21
5.9, 20
5.91, 21
5.92, 25
5.93, 24
5.94, 19
5.95, 21
5.96, 14
5.97, 25
5.98, 24
5.99, 16
6, 17
6.01, 20
6.02, 27
6.03, 15
6.04, 21
6.05, 13
6.06, 33
6.07, 19
6.08, 14
6.09, 19
6.1, 22
6.11, 16
6.12, 21
6.13, 16
6.14, 11
6.15, 27
6.16, 20
6.17, 22
6.18, 19
6.19, 17
6.2, 24
6.21, 23
6.22, 25
6.23, 16
6.24, 23
6.25, 15
6.26, 18
6.27, 26
6.28, 13
6.29, 24
6.3, 17
6.31, 17
6.32, 20
6.33, 16
6.34, 21
6.35, 25
6.36, 26
6.37, 20
6.38, 26
6.39, 19
6.4, 30
6.41, 25
6.42, 19
6.43, 26
6.44, 33
6.45, 27
6.46, 24
6.47, 34
6.48, 28
6.49, 25
6.5, 29
6.51, 27
6.52, 22
6.53, 31
6.54, 29
6.55, 32
6.56, 32
6.57, 30
6.58, 20
6.59, 32
6.6, 25
6.61, 29
6.62, 22
6.63, 18
6.64, 31
6.65, 30
6.66, 29
6.67, 24
6.68, 31
6.69, 24
6.7, 32
6.71, 24
6.72, 32
6.73, 24
6.74, 26
6.75, 32
6.76, 31
6.77, 18
6.78, 40
6.79, 26
6.8, 28
6.81, 37
6.82, 34
6.83, 18
6.84, 45
6.85, 25
6.86, 37
6.87, 40
6.88, 36
6.89, 36
6.9, 18
6.91, 25
6.92, 31
6.93, 34
6.94, 24
6.95, 24
6.96, 40
6.97, 21
6.98, 26
6.99, 32
7, 28
7.01, 31
7.02, 28
7.03, 33
7.04, 28
7.05, 33
7.06, 35
7.07, 39
7.08, 34
7.09, 25
7.1, 30
7.11, 35
7.12, 26
7.13, 36
7.14, 30
7.15, 31
7.16, 31
7.17, 25
7.18, 35
7.19, 36
7.2, 28
7.21, 23
7.22, 36
7.23, 41
7.24, 23
7.25, 31
7.26, 23
7.27, 28
7.28, 37
7.29, 34
7.3, 29
7.31, 27
7.32, 21
7.33, 30
7.34, 33
7.35, 26
7.36, 35
7.37, 27
7.38, 41
7.39, 33
7.4, 31
7.41, 28
7.42, 35
7.43, 37
7.44, 40
7.45, 40
7.46, 36
7.47, 25
7.48, 31
7.49, 22
7.5, 29
7.51, 25
7.52, 27
7.53, 31
7.54, 28
7.55, 20
7.56, 21
7.57, 34
7.58, 26
7.59, 23
7.6, 27
7.61, 26
7.62, 20
7.63, 15
7.64, 9
7.65, 18
7.66, 10
7.67, 19
7.68, 22
7.69, 12
7.7, 16
7.71, 15
7.72, 15
7.73, 14
7.74, 9
7.75, 19
7.76, 11
7.77, 12
7.78, 16
7.79, 12
7.8, 17
7.81, 16
7.82, 15
7.83, 12
7.84, 12
7.85, 15
7.86, 22
7.87, 14
7.88, 6
7.89, 13
7.9, 10
7.91, 14
7.92, 7
7.93, 14
7.94, 19
7.95, 21
7.96, 23
7.97, 12
7.98, 16
7.99, 18
8, 22
8.01, 13
8.02, 10
8.03, 7
8.04, 16
8.05, 18
8.06, 13
8.07, 18
8.08, 20
8.09, 10
8.1, 16
8.11, 10
8.12, 13
8.13, 7
8.14, 14
8.15, 16
8.16, 18
8.17, 15
8.18, 13
8.19, 16
8.2, 14
8.21, 17
8.22, 16
8.23, 19
8.24, 17
8.25, 20
8.26, 14
8.27, 18
8.28, 18
8.29, 24
8.3, 11
8.31, 16
8.32, 12
8.33, 19
8.34, 15
8.35, 14
8.36, 17
8.37, 16
8.38, 9
8.39, 16
8.4, 11
8.41, 23
8.42, 18
8.43, 12
8.44, 11
8.45, 18
8.46, 18
8.47, 17
8.48, 12
8.49, 13
8.5, 8
8.51, 10
8.52, 15
8.53, 17
8.54, 15
8.55, 12
8.56, 11
8.57, 9
8.58, 13
8.59, 15
8.6, 11
8.61, 14
8.62, 15
8.63, 17
8.64, 15
8.65, 11
8.66, 15
8.67, 15
8.68, 10
8.69, 15
8.7, 9
8.71, 13
8.72, 18
8.73, 18
8.74, 14
8.75, 15
8.76, 10
8.77, 10
8.78, 7
8.79, 9
8.8, 13
8.81, 17
8.82, 12
8.83, 12
8.84, 17
8.85, 22
8.86, 14
8.87, 15
8.88, 15
8.89, 15
8.9, 16
8.91, 17
8.92, 10
8.93, 11
8.94, 12
8.95, 19
8.96, 17
8.97, 16
8.98, 16
8.99, 20
9, 12
9.01, 15
9.02, 18
9.03, 15
9.04, 13
9.05, 15
9.06, 14
9.07, 17
9.08, 10
9.09, 12
9.1, 12
9.11, 18
9.12, 13
9.13, 14
9.14, 19
9.15, 14
9.16, 10
9.17, 17
9.18, 19
9.19, 12
9.2, 11
9.21, 15
9.22, 17
9.23, 16
9.24, 21
9.25, 8
9.26, 14
9.27, 12
9.28, 10
9.29, 20
9.3, 15
9.31, 16
9.32, 11
9.33, 25
9.34, 14
9.35, 15
9.36, 22
9.37, 12
9.38, 14
9.39, 13
9.4, 12
9.41, 21
9.42, 16
9.43, 25
9.44, 15
9.45, 13
9.46, 17
9.47, 15
9.48, 10
9.49, 18
9.5, 15
9.51, 14
9.52, 16
9.53, 18
9.54, 10
9.55, 16
9.56, 22
9.57, 16
9.58, 12
9.59, 12
9.6, 21
9.61, 21
9.62, 20
9.63, 14
9.64, 19
9.65, 22
9.66, 21
9.67, 26
9.68, 16
9.69, 15
9.7, 17
9.71, 16
9.72, 18
9.73, 17
9.74, 19
9.75, 18
9.76, 15
9.77, 18
9.78, 15
9.79, 10
9.8, 21
9.81, 15
9.82, 18
9.83, 15
9.84, 21
9.85, 14
9.86, 13
9.87, 12
9.88, 16
9.89, 19
9.9, 11
9.91, 18
9.92, 11
9.93, 22
9.94, 17
9.95, 6
9.96, 14
9.97, 13
9.98, 12
9.99, 21
10, 8
10.01, 16
10.02, 14
10.03, 17
10.04, 12
10.05, 14
10.06, 15
10.07, 23
10.08, 11
10.09, 15
10.1, 23
10.11, 16
10.12, 15
10.13, 12
10.14, 22
10.15, 16
10.16, 23
10.17, 18
10.18, 10
10.19, 19
10.2, 19
10.21, 10
10.22, 14
10.23, 23
10.24, 21
10.25, 17
10.26, 18
10.27, 21
10.28, 15
10.29, 19
10.3, 19
10.31, 14
10.32, 14
10.33, 21
10.34, 19
10.35, 19
10.36, 24
10.37, 14
10.38, 24
10.39, 7
10.4, 20
10.41, 14
10.42, 21
10.43, 14
10.44, 16
10.45, 17
10.46, 16
10.47, 16
10.48, 25
10.49, 13
10.5, 14
10.51, 14
10.52, 18
10.53, 17
10.54, 18
10.55, 19
10.56, 16
10.57, 21
10.58, 15
10.59, 18
10.6, 12
10.61, 30
10.62, 11
10.63, 16
10.64, 15
10.65, 11
10.66, 12
10.67, 18
10.68, 21
10.69, 19
10.7, 12
10.71, 10
10.72, 9
10.73, 15
10.74, 15
10.75, 15
10.76, 14
10.77, 14
10.78, 10
10.79, 16
10.8, 13
10.81, 12
10.82, 11
10.83, 10
10.84, 15
10.85, 15
10.86, 15
10.87, 9
10.88, 12
10.89, 19
10.9, 14
10.91, 8
10.92, 18
10.93, 9
10.94, 5
10.95, 10
10.96, 15
10.97, 12
10.98, 10
10.99, 9
11, 8
11.01, 11
11.02, 10
11.03, 15
11.04, 12
11.05, 9
11.06, 12
11.07, 10
11.08, 7
11.09, 10
11.1, 11
11.11, 10
11.12, 16
11.13, 11
11.14, 8
11.15, 17
11.16, 13
11.17, 14
11.18, 11
11.19, 5
11.2, 12
11.21, 6
11.22, 14
11.23, 9
11.24, 5
11.25, 13
11.26, 10
11.27, 12
11.28, 14
11.29, 21
11.3, 8
11.31, 18
11.32, 9
11.33, 9
11.34, 12
11.35, 13
11.36, 11
11.37, 9
11.38, 13
11.39, 10
11.4, 14
11.41, 15
11.42, 16
11.43, 7
11.44, 9
11.45, 15
11.46, 11
11.47, 15
11.48, 15
11.49, 10
11.5, 7
11.51, 17
11.52, 15
11.53, 16
11.54, 12
11.55, 12
11.56, 8
11.57, 13
11.58, 10
11.59, 13
11.6, 13
11.61, 10
11.62, 7
11.63, 11
11.64, 13
11.65, 8
11.66, 5
11.67, 7
11.68, 13
11.69, 11
11.7, 16
11.71, 14
11.72, 14
11.73, 10
11.74, 14
11.75, 9
11.76, 16
11.77, 9
11.78, 10
11.79, 15
11.8, 17
11.81, 5
11.82, 7
11.83, 14
11.84, 11
11.85, 8
11.86, 14
11.87, 14
11.88, 14
11.89, 15
11.9, 14
11.91, 9
11.92, 10
11.93, 12
11.94, 15
11.95, 8
11.96, 10
11.97, 16
11.98, 7
11.99, 10
12, 11
12.01, 7
12.02, 15
12.03, 11
12.04, 9
12.05, 16
12.06, 6
12.07, 9
12.08, 12
12.09, 12
12.1, 14
12.11, 12
12.12, 8
12.13, 5
12.14, 19
12.15, 15
12.16, 9
12.17, 13
12.18, 9
12.19, 14
12.2, 14
12.21, 9
12.22, 10
12.23, 15
12.24, 7
12.25, 12
12.26, 9
12.27, 16
12.28, 11
12.29, 9
12.3, 13
12.31, 10
12.32, 7
12.33, 12
12.34, 5
12.35, 7
12.36, 5
12.37, 11
12.38, 10
12.39, 11
12.4, 11
12.41, 7
12.42, 10
12.43, 11
12.44, 12
12.45, 6
12.46, 13
12.47, 10
12.48, 10
12.49, 11
12.5, 10
12.51, 19
12.52, 9
12.53, 13
12.54, 11
12.55, 9
12.56, 11
12.57, 7
12.58, 15
12.59, 9
12.6, 5
12.61, 7
12.62, 8
12.63, 5
12.64, 11
12.65, 19
12.66, 6
12.67, 6
12.68, 14
12.69, 16
12.7, 10
12.71, 12
12.72, 8
12.73, 9
12.74, 7
12.75, 13
12.76, 8
12.77, 13
12.78, 9
12.79, 12
12.8, 9
12.81, 9
12.82, 9
12.83, 12
12.84, 6
12.85, 12
12.86, 7
12.87, 8
12.88, 6
12.89, 11
12.9, 12
12.91, 13
12.92, 11
12.93, 8
12.94, 10
12.95, 13
12.96, 12
12.97, 9
12.98, 13
12.99, 12
13, 11
13.01, 13
13.02, 17
13.03, 7
13.04, 15
13.05, 12
13.06, 9
13.07, 10
13.08, 8
13.09, 8
13.1, 8
13.11, 12
13.12, 16
13.13, 7
13.14, 11
13.15, 10
13.16, 16
13.17, 12
13.18, 10
13.19, 18
13.2, 7
13.21, 7
13.22, 5
13.23, 12
13.24, 11
13.25, 10
13.26, 9
13.27, 10
13.28, 6
13.29, 16
13.3, 9
13.31, 11
13.32, 12
13.33, 11
13.34, 15
13.35, 7
13.36, 11
13.37, 6
13.38, 13
13.39, 8
13.4, 13
13.41, 12
13.42, 6
13.43, 10
13.44, 8
13.45, 9
13.46, 9
13.47, 10
13.48, 11
13.49, 12
13.5, 9
13.51, 11
13.52, 13
13.53, 11
13.54, 9
13.55, 9
13.56, 8
13.57, 13
13.58, 8
13.59, 14
13.6, 12
13.61, 14
13.62, 9
13.63, 10
13.64, 13
13.65, 10
13.66, 9
13.67, 9
13.68, 8
13.69, 8
13.7, 15
13.71, 14
13.72, 8
13.73, 13
13.74, 8
13.75, 5
13.76, 8
13.77, 12
13.78, 9
13.79, 4
13.8, 14
13.81, 11
13.82, 11
13.83, 6
13.84, 11
13.85, 7
13.86, 18
13.87, 10
13.88, 5
13.89, 12
13.9, 8
13.91, 4
13.92, 8
13.93, 4
13.94, 3
13.95, 4
13.96, 5
13.97, 12
13.98, 12
13.99, 8
14, 6
14.01, 9
14.02, 12
14.03, 8
14.04, 7
14.05, 7
14.06, 9
14.07, 5
14.08, 14
14.09, 12
14.1, 10
14.11, 14
14.12, 12
14.13, 13
14.14, 11
14.15, 7
14.16, 6
14.17, 14
14.18, 10
14.19, 19
14.2, 13
14.21, 6
14.22, 10
14.23, 6
14.24, 5
14.25, 7
14.26, 11
14.27, 15
14.28, 4
14.29, 8
14.3, 8
14.31, 13
14.32, 10
14.33, 14
14.34, 13
14.35, 10
14.36, 14
14.37, 14
14.38, 6
14.39, 10
14.4, 13
14.41, 9
14.42, 6
14.43, 9
14.44, 5
14.45, 11
14.46, 16
14.47, 9
14.48, 16
14.49, 9
14.5, 12
14.51, 10
14.52, 11
14.53, 8
14.54, 11
14.55, 12
14.56, 9
14.57, 7
14.58, 6
14.59, 7
14.6, 7
14.61, 11
14.62, 8
14.63, 6
14.64, 12
14.65, 8
14.66, 12
14.67, 6
14.68, 10
14.69, 5
14.7, 6
14.71, 10
14.72, 10
14.73, 14
14.74, 11
14.75, 7
14.76, 11
14.77, 10
14.78, 5
14.79, 10
14.8, 11
14.81, 16
14.82, 7
14.83, 5
14.84, 12
14.85, 13
14.86, 12
14.87, 16
14.88, 8
14.89, 13
14.9, 10
14.91, 6
14.92, 10
14.93, 16
14.94, 8
14.95, 14
14.96, 15
14.97, 9
14.98, 7
14.99, 12
15, 10
15.01, 11
15.02, 9
15.03, 6
15.04, 22
15.05, 6
15.06, 9
15.07, 17
15.08, 6
15.09, 10
15.1, 12
15.11, 16
15.12, 15
15.13, 12
15.14, 9
15.15, 12
15.16, 13
15.17, 8
15.18, 7
15.19, 12
15.2, 7
15.21, 12
15.22, 3
15.23, 9
15.24, 9
15.25, 13
15.26, 13
15.27, 12
15.28, 10
15.29, 4
15.3, 8
15.31, 11
15.32, 12
15.33, 10
15.34, 7
15.35, 14
15.36, 10
15.37, 4
15.38, 10
15.39, 12
15.4, 6
15.41, 11
15.42, 17
15.43, 11
15.44, 7
15.45, 15
15.46, 12
15.47, 10
15.48, 9
15.49, 13
15.5, 8
15.51, 8
15.52, 7
15.53, 9
15.54, 11
15.55, 10
15.56, 13
15.57, 21
15.58, 15
15.59, 8
15.6, 7
15.61, 5
15.62, 16
15.63, 12
15.64, 7
15.65, 6
15.66, 12
15.67, 11
15.68, 9
15.69, 12
15.7, 8
15.71, 10
15.72, 3
15.73, 9
15.74, 11
15.75, 7
15.76, 10
15.77, 9
15.78, 13
15.79, 6
15.8, 11
15.81, 12
15.82, 8
15.83, 15
15.84, 16
15.85, 15
15.86, 10
15.87, 10
15.88, 8
15.89, 7
15.9, 15
15.91, 11
15.92, 7
15.93, 8
15.94, 10
15.95, 10
15.96, 13
15.97, 17
15.98, 14
15.99, 17
16, 8
16.01, 10
16.02, 12
16.03, 8
16.04, 16
16.05, 12
16.06, 13
16.07, 13
16.08, 16
16.09, 12
16.1, 12
16.11, 8
16.12, 6
16.13, 8
16.14, 9
16.15, 10
16.16, 9
16.17, 14
16.18, 12
16.19, 10
16.2, 6
16.21, 9
16.22, 8
16.23, 16
16.24, 4
16.25, 11
16.26, 8
16.27, 15
16.28, 11
16.29, 3
16.3, 9
16.31, 10
16.32, 15
16.33, 10
16.34, 15
16.35, 9
16.36, 13
16.37, 12
16.38, 9
16.39, 11
16.4, 9
16.41, 7
16.42, 5
16.43, 6
16.44, 6
16.45, 18
16.46, 7
16.47, 10
16.48, 13
16.49, 12
16.5, 11
16.51, 16
16.52, 9
16.53, 9
16.54, 6
16.55, 8
16.56, 13
16.57, 12
16.58, 9
16.59, 10
16.6, 7
16.61, 9
16.62, 8
16.63, 13
16.64, 15
16.65, 12
16.66, 13
16.67, 10
16.68, 11
16.69, 10
16.7, 10
16.71, 9
16.72, 8
16.73, 7
16.74, 7
16.75, 11
16.76, 8
16.77, 17
16.78, 15
16.79, 11
16.8, 13
16.81, 13
16.82, 9
16.83, 16
16.84, 5
16.85, 11
16.86, 13
16.87, 7
16.88, 6
16.89, 8
16.9, 11
16.91, 10
16.92, 11
16.93, 8
16.94, 6
16.95, 9
16.96, 12
16.97, 14
16.98, 9
16.99, 6
17, 12
17.01, 12
17.02, 14
17.03, 16
17.04, 12
17.05, 13
17.06, 16
17.07, 10
17.08, 6
17.09, 17
17.1, 13
17.11, 12
17.12, 12
17.13, 9
17.14, 12
17.15, 9
17.16, 8
17.17, 10
17.18, 15
17.19, 9
17.2, 9
17.21, 11
17.22, 13
17.23, 5
17.24, 10
17.25, 10
17.26, 4
17.27, 6
17.28, 13
17.29, 9
17.3, 9
17.31, 8
17.32, 12
17.33, 7
17.34, 9
17.35, 10
17.36, 10
17.37, 12
17.38, 16
17.39, 8
17.4, 9
17.41, 6
17.42, 4
17.43, 9
17.44, 15
17.45, 7
17.46, 8
17.47, 14
17.48, 5
17.49, 11
17.5, 11
17.51, 8
17.52, 8
17.53, 14
17.54, 4
17.55, 7
17.56, 8
17.57, 10
17.58, 8
17.59, 10
17.6, 9
17.61, 12
17.62, 13
17.63, 7
17.64, 10
17.65, 5
17.66, 10
17.67, 6
17.68, 9
17.69, 9
17.7, 4
17.71, 14
17.72, 10
17.73, 18
17.74, 17
17.75, 17
17.76, 14
17.77, 13
17.78, 4
17.79, 10
17.8, 11
17.81, 8
17.82, 9
17.83, 6
17.84, 4
17.85, 11
17.86, 6
17.87, 8
17.88, 12
17.89, 11
17.9, 12
17.91, 6
17.92, 5
17.93, 13
17.94, 14
17.95, 12
17.96, 8
17.97, 5
17.98, 10
17.99, 12
18, 7
18.01, 7
18.02, 18
18.03, 7
18.04, 12
18.05, 9
18.06, 11
18.07, 9
18.08, 13
18.09, 12
18.1, 5
18.11, 10
18.12, 10
18.13, 8
18.14, 12
18.15, 12
18.16, 9
18.17, 9
18.18, 11
18.19, 12
18.2, 13
18.21, 8
18.22, 9
18.23, 4
18.24, 13
18.25, 10
18.26, 9
18.27, 11
18.28, 8
18.29, 10
18.3, 7
18.31, 7
18.32, 14
18.33, 14
18.34, 16
18.35, 9
18.36, 17
18.37, 9
18.38, 14
18.39, 11
18.4, 10
18.41, 6
18.42, 12
18.43, 7
18.44, 6
18.45, 17
18.46, 11
18.47, 18
18.48, 10
18.49, 9
18.5, 11
18.51, 6
18.52, 6
18.53, 17
18.54, 10
18.55, 6
18.56, 13
18.57, 11
18.58, 12
18.59, 6
18.6, 12
18.61, 6
18.62, 11
18.63, 3
18.64, 12
18.65, 14
18.66, 7
18.67, 11
18.68, 7
18.69, 9
18.7, 16
18.71, 12
18.72, 16
18.73, 10
18.74, 12
18.75, 10
18.76, 10
18.77, 10
18.78, 12
18.79, 6
18.8, 3
18.81, 9
18.82, 8
18.83, 6
18.84, 19
18.85, 8
18.86, 6
18.87, 11
18.88, 11
18.89, 4
18.9, 11
18.91, 10
18.92, 9
18.93, 9
18.94, 13
18.95, 7
18.96, 11
18.97, 17
18.98, 15
18.99, 17
19, 14
19.01, 12
19.02, 12
19.03, 5
19.04, 9
19.05, 7
19.06, 9
19.07, 8
19.08, 10
19.09, 15
19.1, 12
19.11, 7
19.12, 14
19.13, 8
19.14, 14
19.15, 13
19.16, 10
19.17, 8
19.18, 13
19.19, 7
19.2, 10
19.21, 14
19.22, 8
19.23, 15
19.24, 11
19.25, 10
19.26, 7
19.27, 9
19.28, 8
19.29, 10
19.3, 11
19.31, 12
19.32, 9
19.33, 6
19.34, 6
19.35, 4
19.36, 11
19.37, 11
19.38, 11
19.39, 8
19.4, 12
19.41, 10
19.42, 8
19.43, 10
19.44, 6
19.45, 10
19.46, 9
19.47, 11
19.48, 16
19.49, 10
19.5, 9
19.51, 23
19.52, 8
19.53, 6
19.54, 6
19.55, 7
19.56, 9
19.57, 8
19.58, 6
19.59, 13
19.6, 19
19.61, 8
19.62, 9
19.63, 18
19.64, 12
19.65, 5
19.66, 10
19.67, 7
19.68, 8
19.69, 17
19.7, 9
19.71, 10
19.72, 15
19.73, 13
19.74, 12
19.75, 9
19.76, 12
19.77, 19
19.78, 5
19.79, 16
19.8, 7
19.81, 12
19.82, 12
19.83, 4
19.84, 18
19.85, 2
19.86, 9
19.87, 19
19.88, 10
19.89, 7
19.9, 9
19.91, 11
19.92, 6
19.93, 15
19.94, 8
19.95, 9
19.96, 10
19.97, 9
19.98, 10
19.99, 4
20, 8
20.01, 12
20.02, 12
20.03, 10
20.04, 16
20.05, 7
20.06, 9
20.07, 13
20.08, 13
20.09, 20
20.1, 7
20.11, 12
20.12, 4
20.13, 11
20.14, 7
20.15, 6
20.16, 12
20.17, 13
20.18, 13
20.19, 12
20.2, 6
20.21, 9
20.22, 11
20.23, 13
20.24, 11
20.25, 15
20.26, 6
20.27, 14
20.28, 7
20.29, 11
20.3, 10
20.31, 9
20.32, 7
20.33, 7
20.34, 8
20.35, 8
20.36, 8
20.37, 11
20.38, 8
20.39, 10
20.4, 11
20.41, 16
20.42, 12
20.43, 9
20.44, 13
20.45, 9
20.46, 14
20.47, 10
20.48, 12
20.49, 12
20.5, 13
20.51, 9
20.52, 9
20.53, 6
20.54, 23
20.55, 6
20.56, 13
20.57, 13
20.58, 13
20.59, 14
20.6, 8
20.61, 9
20.62, 15
20.63, 5
20.64, 16
20.65, 7
20.66, 12
20.67, 14
20.68, 10
20.69, 16
20.7, 12
20.71, 21
20.72, 8
20.73, 6
20.74, 12
20.75, 10
20.76, 6
20.77, 12
20.78, 15
20.79, 13
20.8, 17
20.81, 8
20.82, 19
20.83, 7
20.84, 12
20.85, 12
20.86, 11
20.87, 10
20.88, 11
20.89, 8
20.9, 7
20.91, 13
20.92, 17
20.93, 13
20.94, 8
20.95, 8
20.96, 10
20.97, 5
20.98, 11
20.99, 8
21, 11
21.01, 11
21.02, 7
21.03, 6
21.04, 8
21.05, 14
21.06, 14
21.07, 20
21.08, 11
21.09, 13
21.1, 20
21.11, 7
21.12, 10
21.13, 6
21.14, 12
21.15, 9
21.16, 12
21.17, 9
21.18, 9
21.19, 6
21.2, 9
21.21, 11
21.22, 8
21.23, 18
21.24, 9
21.25, 10
21.26, 12
21.27, 15
21.28, 6
21.29, 18
21.3, 12
21.31, 11
21.32, 13
21.33, 12
21.34, 8
21.35, 8
21.36, 7
21.37, 11
21.38, 10
21.39, 9
21.4, 12
21.41, 5
21.42, 6
21.43, 13
21.44, 11
21.45, 11
21.46, 6
21.47, 23
21.48, 12
21.49, 11
21.5, 11
21.51, 12
21.52, 14
21.53, 8
21.54, 8
21.55, 9
21.56, 9
21.57, 11
21.58, 8
21.59, 13
21.6, 14
21.61, 9
21.62, 10
21.63, 19
21.64, 11
21.65, 15
21.66, 17
21.67, 7
21.68, 12
21.69, 9
21.7, 14
21.71, 10
21.72, 14
21.73, 12
21.74, 9
21.75, 8
21.76, 13
21.77, 7
21.78, 6
21.79, 5
21.8, 14
21.81, 3
21.82, 13
21.83, 12
21.84, 13
21.85, 12
21.86, 13
21.87, 15
21.88, 9
21.89, 8
21.9, 10
21.91, 10
21.92, 9
21.93, 14
21.94, 5
21.95, 7
21.96, 7
21.97, 9
21.98, 11
21.99, 16
22, 8
22.01, 11
22.02, 6
22.03, 10
22.04, 9
22.05, 14
22.06, 8
22.07, 10
22.08, 8
22.09, 14
22.1, 10
22.11, 12
22.12, 17
22.13, 9
22.14, 7
22.15, 11
22.16, 7
22.17, 15
22.18, 12
22.19, 9
22.2, 13
22.21, 8
22.22, 17
22.23, 8
22.24, 11
22.25, 11
22.26, 9
22.27, 12
22.28, 6
22.29, 10
22.3, 11
22.31, 11
22.32, 13
22.33, 9
22.34, 9
22.35, 9
22.36, 8
22.37, 10
22.38, 11
22.39, 14
22.4, 11
22.41, 12
22.42, 10
22.43, 11
22.44, 10
22.45, 9
22.46, 9
22.47, 4
22.48, 9
22.49, 10
22.5, 2
22.51, 7
22.52, 16
22.53, 14
22.54, 14
22.55, 8
22.56, 11
22.57, 5
22.58, 8
22.59, 8
22.6, 8
22.61, 16
22.62, 10
22.63, 6
22.64, 12
22.65, 6
22.66, 13
22.67, 10
22.68, 11
22.69, 8
22.7, 13
22.71, 11
22.72, 15
22.73, 7
22.74, 10
22.75, 19
22.76, 10
22.77, 13
22.78, 13
22.79, 7
22.8, 10
22.81, 10
22.82, 18
22.83, 7
22.84, 15
22.85, 11
22.86, 13
22.87, 10
22.88, 20
22.89, 9
22.9, 7
22.91, 8
22.92, 9
22.93, 9
22.94, 8
22.95, 6
22.96, 5
22.97, 13
22.98, 8
22.99, 6
23, 7
23.01, 11
23.02, 12
23.03, 17
23.04, 9
23.05, 9
23.06, 7
23.07, 9
23.08, 15
23.09, 6
23.1, 14
23.11, 9
23.12, 11
23.13, 8
23.14, 8
23.15, 6
23.16, 11
23.17, 6
23.18, 8
23.19, 11
23.2, 6
23.21, 16
23.22, 9
23.23, 10
23.24, 7
23.25, 4
23.26, 9
23.27, 15
23.28, 10
23.29, 6
23.3, 6
23.31, 8
23.32, 4
23.33, 9
23.34, 15
23.35, 10
23.36, 18
23.37, 15
23.38, 15
23.39, 7
23.4, 14
23.41, 9
23.42, 8
23.43, 9
23.44, 14
23.45, 14
23.46, 10
23.47, 7
23.48, 10
23.49, 12
23.5, 9
23.51, 13
23.52, 8
23.53, 2
23.54, 12
23.55, 12
23.56, 4
23.57, 11
23.58, 10
23.59, 10
23.6, 12
23.61, 6
23.62, 8
23.63, 10
23.64, 12
23.65, 15
23.66, 11
23.67, 7
23.68, 7
23.69, 13
23.7, 10
23.71, 15
23.72, 17
23.73, 14
23.74, 7
23.75, 6
23.76, 11
23.77, 12
23.78, 8
23.79, 12
23.8, 8
23.81, 11
23.82, 12
23.83, 9
23.84, 9
23.85, 4
23.86, 11
23.87, 7
23.88, 11
23.89, 8
23.9, 13
23.91, 15
23.92, 13
23.93, 8
23.94, 11
23.95, 7
23.96, 5
23.97, 8
23.98, 6
23.99, 11
24, 6
24.01, 6
24.02, 10
24.03, 12
24.04, 8
24.05, 13
24.06, 13
24.07, 12
24.08, 8
24.09, 8
24.1, 6
24.11, 9
24.12, 5
24.13, 9
24.14, 13
24.15, 10
24.16, 7
24.17, 12
24.18, 11
24.19, 9
24.2, 5
24.21, 9
24.22, 2
24.23, 11
24.24, 14
24.25, 8
24.26, 14
24.27, 9
24.28, 7
24.29, 9
24.3, 6
24.31, 10
24.32, 8
24.33, 11
24.34, 9
24.35, 7
24.36, 15
24.37, 7
24.38, 12
24.39, 5
24.4, 6
24.41, 9
24.42, 7
24.43, 12
24.44, 7
24.45, 4
24.46, 12
24.47, 7
24.48, 10
24.49, 12
24.5, 7
24.51, 12
24.52, 8
24.53, 7
24.54, 8
24.55, 6
24.56, 10
24.57, 9
24.58, 10
24.59, 9
24.6, 10
24.61, 8
24.62, 13
24.63, 7
24.64, 16
24.65, 7
24.66, 14
24.67, 12
24.68, 15
24.69, 15
24.7, 14
24.71, 18
24.72, 12
24.73, 11
24.74, 16
24.75, 17
24.76, 15
24.77, 12
24.78, 12
24.79, 5
24.8, 11
24.81, 10
24.82, 8
24.83, 10
24.84, 6
24.85, 10
24.86, 9
24.87, 10
24.88, 6
24.89, 8
24.9, 9
24.91, 6
24.92, 9
24.93, 16
24.94, 9
24.95, 7
24.96, 13
24.97, 9
24.98, 13
24.99, 7
25, 12
25.01, 6
25.02, 6
25.03, 9
25.04, 15
25.05, 5
25.06, 11
25.07, 13
25.08, 9
25.09, 9
25.1, 12
25.11, 6
25.12, 13
25.13, 7
25.14, 5
25.15, 9
25.16, 10
25.17, 11
25.18, 10
25.19, 10
25.2, 4
25.21, 12
25.22, 4
25.23, 12
25.24, 10
25.25, 10
25.26, 10
25.27, 7
25.28, 9
25.29, 9
25.3, 9
25.31, 8
25.32, 12
25.33, 16
25.34, 8
25.35, 6
25.36, 7
25.37, 8
25.38, 11
25.39, 9
25.4, 11
25.41, 7
25.42, 7
25.43, 11
25.44, 16
25.45, 9
25.46, 11
25.47, 10
25.48, 12
25.49, 11
25.5, 9
25.51, 16
25.52, 14
25.53, 6
25.54, 8
25.55, 8
25.56, 6
25.57, 9
25.58, 13
25.59, 12
25.6, 8
25.61, 10
25.62, 6
25.63, 10
25.64, 6
25.65, 6
25.66, 12
25.67, 7
25.68, 12
25.69, 8
25.7, 13
25.71, 9
25.72, 6
25.73, 14
25.74, 11
25.75, 13
25.76, 15
25.77, 15
25.78, 5
25.79, 7
25.8, 6
25.81, 7
25.82, 2
25.83, 9
25.84, 7
25.85, 10
25.86, 9
25.87, 14
25.88, 7
25.89, 5
25.9, 5
25.91, 8
25.92, 19
25.93, 10
25.94, 5
25.95, 7
25.96, 8
25.97, 5
25.98, 7
25.99, 4
26, 4
26.01, 4
26.02, 11
26.03, 10
26.04, 8
26.05, 13
26.06, 14
26.07, 8
26.08, 13
26.09, 12
26.1, 8
26.11, 13
26.12, 7
26.13, 10
26.14, 8
26.15, 7
26.16, 9
26.17, 9
26.18, 6
26.19, 10
26.2, 14
26.21, 7
26.22, 11
26.23, 13
26.24, 13
26.25, 5
26.26, 12
26.27, 10
26.28, 7
26.29, 19
26.3, 15
26.31, 8
26.32, 14
26.33, 7
26.34, 9
26.35, 14
26.36, 8
26.37, 7
26.38, 11
26.39, 9
26.4, 11
26.41, 14
26.42, 11
26.43, 13
26.44, 14
26.45, 5
26.46, 6
26.47, 13
26.48, 14
26.49, 9
26.5, 7
26.51, 12
26.52, 13
26.53, 7
26.54, 4
26.55, 7
26.56, 12
26.57, 19
26.58, 10
26.59, 14
26.6, 4
26.61, 9
26.62, 12
26.63, 5
26.64, 8
26.65, 13
26.66, 9
26.67, 21
26.68, 13
26.69, 8
26.7, 9
26.71, 6
26.72, 16
26.73, 7
26.74, 8
26.75, 14
26.76, 9
26.77, 14
26.78, 16
26.79, 13
26.8, 4
26.81, 12
26.82, 7
26.83, 14
26.84, 10
26.85, 12
26.86, 9
26.87, 6
26.88, 10
26.89, 7
26.9, 14
26.91, 15
26.92, 8
26.93, 11
26.94, 14
26.95, 8
26.96, 9
26.97, 16
26.98, 14
26.99, 6
27, 5
27.01, 11
27.02, 13
27.03, 15
27.04, 4
27.05, 10
27.06, 19
27.07, 13
27.08, 13
27.09, 17
27.1, 13
27.11, 10
27.12, 20
27.13, 13
27.14, 14
27.15, 18
27.16, 8
27.17, 9
27.18, 12
27.19, 10
27.2, 9
27.21, 19
27.22, 9
27.23, 9
27.24, 18
27.25, 19
27.26, 11
27.27, 20
27.28, 24
27.29, 12
27.3, 21
27.31, 31
27.32, 37
27.33, 45
27.34, 50
27.35, 83
27.36, 103
27.37, 135
27.38, 151
27.39, 223
27.4, 227
27.41, 228
27.42, 225
27.43, 209
27.44, 183
27.45, 151
27.46, 153
27.47, 133
27.48, 123
27.49, 126
27.5, 99
27.51, 63
27.52, 44
27.53, 37
27.54, 33
27.55, 26
27.56, 23
27.57, 20
27.58, 14
27.59, 19
27.6, 16
27.61, 14
27.62, 23
27.63, 14
27.64, 16
27.65, 18
27.66, 13
27.67, 10
27.68, 7
27.69, 12
27.7, 11
27.71, 15
27.72, 9
27.73, 6
27.74, 13
27.75, 4
27.76, 14
27.77, 13
27.78, 9
27.79, 14
27.8, 13
27.81, 12
27.82, 6
27.83, 24
27.84, 11
27.85, 12
27.86, 9
27.87, 10
27.88, 8
27.89, 11
27.9, 10
27.91, 9
27.92, 7
27.93, 9
27.94, 15
27.95, 5
27.96, 10
27.97, 17
27.98, 12
27.99, 7
28, 10
28.01, 13
28.02, 12
28.03, 6
28.04, 12
28.05, 12
28.06, 11
28.07, 5
28.08, 9
28.09, 13
28.1, 9
28.11, 11
28.12, 15
28.13, 11
28.14, 12
28.15, 14
28.16, 8
28.17, 11
28.18, 9
28.19, 13
28.2, 9
28.21, 12
28.22, 7
28.23, 7
28.24, 12
28.25, 7
28.26, 11
28.27, 15
28.28, 6
28.29, 10
28.3, 13
28.31, 20
28.32, 16
28.33, 14
28.34, 9
28.35, 12
28.36, 17
28.37, 13
28.38, 6
28.39, 4
28.4, 9
28.41, 6
28.42, 9
28.43, 8
28.44, 15
28.45, 15
28.46, 14
28.47, 9
28.48, 18
28.49, 13
28.5, 15
28.51, 13
28.52, 17
28.53, 21
28.54, 16
28.55, 26
28.56, 23
28.57, 40
28.58, 50
28.59, 40
28.6, 59
28.61, 62
28.62, 64
28.63, 49
28.64, 47
28.65, 47
28.66, 28
28.67, 22
28.68, 16
28.69, 15
28.7, 16
28.71, 16
28.72, 19
28.73, 14
28.74, 14
28.75, 16
28.76, 12
28.77, 13
28.78, 9
28.79, 12
28.8, 14
28.81, 13
28.82, 11
28.83, 13
28.84, 11
28.85, 10
28.86, 14
28.87, 8
28.88, 14
28.89, 15
28.9, 16
28.91, 4
28.92, 21
28.93, 12
28.94, 9
28.95, 10
28.96, 18
28.97, 13
28.98, 12
28.99, 6
29, 17
29.01, 15
29.02, 11
29.03, 14
29.04, 6
29.05, 11
29.06, 19
29.07, 14
29.08, 14
29.09, 15
29.1, 19
29.11, 5
29.12, 13
29.13, 12
29.14, 10
29.15, 8
29.16, 16
29.17, 12
29.18, 10
29.19, 13
29.2, 14
29.21, 12
29.22, 13
29.23, 13
29.24, 14
29.25, 17
29.26, 11
29.27, 15
29.28, 13
29.29, 17
29.3, 12
29.31, 10
29.32, 11
29.33, 11
29.34, 11
29.35, 6
29.36, 7
29.37, 9
29.38, 12
29.39, 8
29.4, 13
29.41, 11
29.42, 8
29.43, 15
29.44, 12
29.45, 14
29.46, 11
29.47, 11
29.48, 15
29.49, 7
29.5, 8
29.51, 16
29.52, 17
29.53, 7
29.54, 4
29.55, 14
29.56, 11
29.57, 15
29.58, 16
29.59, 19
29.6, 9
29.61, 16
29.62, 9
29.63, 11
29.64, 12
29.65, 11
29.66, 10
29.67, 11
29.68, 6
29.69, 8
29.7, 9
29.71, 13
29.72, 17
29.73, 8
29.74, 14
29.75, 13
29.76, 10
29.77, 13
29.78, 12
29.79, 13
29.8, 10
29.81, 13
29.82, 10
29.83, 7
29.84, 14
29.85, 15
29.86, 3
29.87, 10
29.88, 8
29.89, 6
29.9, 12
29.91, 11
29.92, 12
29.93, 12
29.94, 24
29.95, 13
29.96, 16
29.97, 13
29.98, 13
29.99, 10
30, 8
30.01, 8
30.02, 7
30.03, 11
30.04, 12
30.05, 19
30.06, 12
30.07, 6
30.08, 12
30.09, 9
30.1, 10
30.11, 15
30.12, 12
30.13, 16
30.14, 16
30.15, 11
30.16, 8
30.17, 7
30.18, 11
30.19, 12
30.2, 9
30.21, 7
30.22, 17
30.23, 13
30.24, 15
30.25, 9
30.26, 11
30.27, 13
30.28, 13
30.29, 16
30.3, 10
30.31, 12
30.32, 13
30.33, 9
30.34, 12
30.35, 10
30.36, 13
30.37, 11
30.38, 15
30.39, 14
30.4, 16
30.41, 14
30.42, 12
30.43, 8
30.44, 15
30.45, 13
30.46, 13
30.47, 11
30.48, 11
30.49, 8
30.5, 9
30.51, 16
30.52, 12
30.53, 9
30.54, 13
30.55, 9
30.56, 11
30.57, 8
30.58, 14
30.59, 12
30.6, 8
30.61, 5
30.62, 19
30.63, 19
30.64, 16
30.65, 6
30.66, 10
30.67, 16
30.68, 10
30.69, 25
30.7, 12
30.71, 17
30.72, 12
30.73, 20
30.74, 18
30.75, 12
30.76, 12
30.77, 19
30.78, 13
30.79, 17
30.8, 19
30.81, 16
30.82, 18
30.83, 27
30.84, 20
30.85, 18
30.86, 23
30.87, 22
30.88, 18
30.89, 16
30.9, 18
30.91, 23
30.92, 18
30.93, 11
30.94, 17
30.95, 24
30.96, 10
30.97, 26
30.98, 15
30.99, 17
31, 21
31.01, 21
31.02, 15
31.03, 23
31.04, 25
31.05, 16
31.06, 18
31.07, 12
31.08, 21
31.09, 17
31.1, 17
31.11, 27
31.12, 15
31.13, 20
31.14, 16
31.15, 15
31.16, 14
31.17, 13
31.18, 28
31.19, 19
31.2, 15
31.21, 21
31.22, 12
31.23, 14
31.24, 20
31.25, 16
31.26, 24
31.27, 24
31.28, 25
31.29, 28
31.3, 22
31.31, 26
31.32, 27
31.33, 22
31.34, 15
31.35, 18
31.36, 22
31.37, 20
31.38, 20
31.39, 25
31.4, 18
31.41, 26
31.42, 20
31.43, 15
31.44, 28
31.45, 25
31.46, 28
31.47, 31
31.48, 35
31.49, 27
31.5, 41
31.51, 40
31.52, 33
31.53, 58
31.54, 53
31.55, 55
31.56, 70
31.57, 69
31.58, 93
31.59, 84
31.6, 113
31.61, 103
31.62, 142
31.63, 151
31.64, 206
31.65, 272
31.66, 375
31.67, 455
31.68, 723
31.69, 915
31.7, 1286
31.71, 1758
31.72, 2159
31.73, 2406
31.74, 2461
31.75, 2236
31.76, 1947
31.77, 1533
31.78, 1280
31.79, 1272
31.8, 1332
31.81, 1361
31.82, 1317
31.83, 1093
31.84, 900
31.85, 663
31.86, 435
31.87, 310
31.88, 230
31.89, 170
31.9, 115
31.91, 126
31.92, 110
31.93, 76
31.94, 75
31.95, 65
31.96, 54
31.97, 56
31.98, 41
31.99, 46
32, 43
32.01, 46
32.02, 39
32.03, 38
32.04, 37
32.05, 32
32.06, 25
32.07, 22
32.08, 30
32.09, 24
32.1, 20
32.11, 21
32.12, 20
32.13, 24
32.14, 24
32.15, 17
32.16, 22
32.17, 22
32.18, 23
32.19, 20
32.2, 22
32.21, 19
32.22, 26
32.23, 18
32.24, 22
32.25, 19
32.26, 20
32.27, 16
32.28, 22
32.29, 27
32.3, 18
32.31, 15
32.32, 25
32.33, 14
32.34, 15
32.35, 21
32.36, 29
32.37, 21
32.38, 19
32.39, 17
32.4, 22
32.41, 25
32.42, 19
32.43, 17
32.44, 19
32.45, 17
32.46, 12
32.47, 17
32.48, 18
32.49, 14
32.5, 20
32.51, 17
32.52, 12
32.53, 16
32.54, 18
32.55, 13
32.56, 16
32.57, 19
32.58, 14
32.59, 17
32.6, 15
32.61, 10
32.62, 18
32.63, 7
32.64, 18
32.65, 19
32.66, 11
32.67, 14
32.68, 14
32.69, 21
32.7, 14
32.71, 12
32.72, 16
32.73, 18
32.74, 20
32.75, 18
32.76, 15
32.77, 18
32.78, 20
32.79, 22
32.8, 19
32.81, 16
32.82, 13
32.83, 17
32.84, 16
32.85, 12
32.86, 14
32.87, 12
32.88, 17
32.89, 19
32.9, 13
32.91, 13
32.92, 14
32.93, 13
32.94, 23
32.95, 19
32.96, 11
32.97, 21
32.98, 15
32.99, 17
33, 15
33.01, 15
33.02, 14
33.03, 14
33.04, 16
33.05, 23
33.06, 11
33.07, 7
33.08, 16
33.09, 10
33.1, 13
33.11, 15
33.12, 15
33.13, 15
33.14, 23
33.15, 20
33.16, 17
33.17, 13
33.18, 18
33.19, 15
33.2, 8
33.21, 12
33.22, 17
33.23, 16
33.24, 14
33.25, 13
33.26, 15
33.27, 15
33.28, 14
33.29, 18
33.3, 7
33.31, 11
33.32, 15
33.33, 13
33.34, 22
33.35, 10
33.36, 26
33.37, 17
33.38, 13
33.39, 17
33.4, 15
33.41, 16
33.42, 18
33.43, 14
33.44, 14
33.45, 13
33.46, 18
33.47, 15
33.48, 19
33.49, 16
33.5, 15
33.51, 18
33.52, 16
33.53, 21
33.54, 17
33.55, 15
33.56, 15
33.57, 14
33.58, 15
33.59, 9
33.6, 11
33.61, 14
33.62, 14
33.63, 17
33.64, 16
33.65, 13
33.66, 17
33.67, 10
33.68, 12
33.69, 9
33.7, 13
33.71, 7
33.72, 14
33.73, 11
33.74, 17
33.75, 11
33.76, 11
33.77, 12
33.78, 14
33.79, 16
33.8, 13
33.81, 11
33.82, 12
33.83, 10
33.84, 16
33.85, 18
33.86, 15
33.87, 15
33.88, 15
33.89, 10
33.9, 12
33.91, 17
33.92, 10
33.93, 14
33.94, 11
33.95, 22
33.96, 20
33.97, 13
33.98, 10
33.99, 14
34, 14
34.01, 24
34.02, 19
34.03, 13
34.04, 18
34.05, 9
34.06, 17
34.07, 14
34.08, 16
34.09, 14
34.1, 10
34.11, 14
34.12, 18
34.13, 15
34.14, 6
34.15, 13
34.16, 6
34.17, 14
34.18, 10
34.19, 13
34.2, 12
34.21, 10
34.22, 20
34.23, 10
34.24, 16
34.25, 13
34.26, 18
34.27, 9
34.28, 16
34.29, 11
34.3, 11
34.31, 9
34.32, 19
34.33, 15
34.34, 12
34.35, 8
34.36, 13
34.37, 13
34.38, 15
34.39, 10
34.4, 20
34.41, 17
34.42, 15
34.43, 9
34.44, 14
34.45, 6
34.46, 13
34.47, 21
34.48, 12
34.49, 17
34.5, 10
34.51, 11
34.52, 13
34.53, 21
34.54, 8
34.55, 11
34.56, 9
34.57, 20
34.58, 10
34.59, 12
34.6, 8
34.61, 14
34.62, 12
34.63, 12
34.64, 9
34.65, 12
34.66, 17
34.67, 17
34.68, 14
34.69, 9
34.7, 19
34.71, 14
34.72, 9
34.73, 10
34.74, 18
34.75, 11
34.76, 9
34.77, 7
34.78, 17
34.79, 5
34.8, 18
34.81, 9
34.82, 11
34.83, 9
34.84, 15
34.85, 11
34.86, 10
34.87, 9
34.88, 21
34.89, 13
34.9, 6
34.91, 17
34.92, 7
34.93, 11
34.94, 10
34.95, 14
34.96, 12
34.97, 15
34.98, 10
34.99, 14
35, 13
35.01, 12
35.02, 16
35.03, 18
35.04, 20
35.05, 10
35.06, 12
35.07, 12
35.08, 6
35.09, 15
35.1, 13
35.11, 12
35.12, 13
35.13, 7
35.14, 14
35.15, 13
35.16, 8
35.17, 13
35.18, 12
35.19, 14
35.2, 12
35.21, 16
35.22, 16
35.23, 10
35.24, 14
35.25, 14
35.26, 15
35.27, 13
35.28, 10
35.29, 10
35.3, 13
35.31, 9
35.32, 12
35.33, 13
35.34, 11
35.35, 8
35.36, 9
35.37, 12
35.38, 13
35.39, 14
35.4, 18
35.41, 13
35.42, 10
35.43, 14
35.44, 11
35.45, 11
35.46, 19
35.47, 11
35.48, 11
35.49, 8
35.5, 12
35.51, 13
35.52, 11
35.53, 15
35.54, 9
35.55, 17
35.56, 16
35.57, 15
35.58, 8
35.59, 9
35.6, 15
35.61, 16
35.62, 17
35.63, 10
35.64, 13
35.65, 9
35.66, 7
35.67, 10
35.68, 15
35.69, 8
35.7, 19
35.71, 12
35.72, 14
35.73, 14
35.74, 10
35.75, 13
35.76, 10
35.77, 7
35.78, 13
35.79, 7
35.8, 19
35.81, 10
35.82, 12
35.83, 13
35.84, 9
35.85, 12
35.86, 13
35.87, 19
35.88, 9
35.89, 14
35.9, 13
35.91, 16
35.92, 11
35.93, 14
35.94, 10
35.95, 10
35.96, 14
35.97, 11
35.98, 8
35.99, 12
36, 10
36.01, 12
36.02, 13
36.03, 15
36.04, 15
36.05, 16
36.06, 13
36.07, 10
36.08, 14
36.09, 12
36.1, 15
36.11, 11
36.12, 12
36.13, 13
36.14, 9
36.15, 9
36.16, 6
36.17, 14
36.18, 9
36.19, 15
36.2, 9
36.21, 8
36.22, 12
36.23, 12
36.24, 7
36.25, 11
36.26, 9
36.27, 14
36.28, 14
36.29, 12
36.3, 11
36.31, 9
36.32, 8
36.33, 7
36.34, 8
36.35, 11
36.36, 15
36.37, 12
36.38, 14
36.39, 13
36.4, 6
36.41, 14
36.42, 17
36.43, 10
36.44, 9
36.45, 11
36.46, 12
36.47, 13
36.48, 10
36.49, 6
36.5, 11
36.51, 10
36.52, 8
36.53, 17
36.54, 12
36.55, 10
36.56, 17
36.57, 15
36.58, 11
36.59, 5
36.6, 10
36.61, 7
36.62, 12
36.63, 9
36.64, 13
36.65, 12
36.66, 9
36.67, 11
36.68, 6
36.69, 7
36.7, 4
36.71, 16
36.72, 14
36.73, 11
36.74, 17
36.75, 12
36.76, 9
36.77, 13
36.78, 10
36.79, 12
36.8, 14
36.81, 14
36.82, 14
36.83, 11
36.84, 8
36.85, 9
36.86, 11
36.87, 8
36.88, 12
36.89, 15
36.9, 6
36.91, 11
36.92, 19
36.93, 6
36.94, 6
36.95, 11
36.96, 9
36.97, 9
36.98, 13
36.99, 11
37, 6
37.01, 9
37.02, 8
37.03, 16
37.04, 13
37.05, 14
37.06, 6
37.07, 8
37.08, 11
37.09, 11
37.1, 5
37.11, 8
37.12, 13
37.13, 17
37.14, 16
37.15, 13
37.16, 4
37.17, 12
37.18, 10
37.19, 17
37.2, 14
37.21, 16
37.22, 13
37.23, 4
37.24, 8
37.25, 9
37.26, 14
37.27, 9
37.28, 13
37.29, 14
37.3, 17
37.31, 12
37.32, 7
37.33, 16
37.34, 8
37.35, 11
37.36, 9
37.37, 12
37.38, 10
37.39, 11
37.4, 9
37.41, 14
37.42, 8
37.43, 12
37.44, 10
37.45, 9
37.46, 10
37.47, 12
37.48, 9
37.49, 8
37.5, 8
37.51, 12
37.52, 18
37.53, 12
37.54, 10
37.55, 10
37.56, 13
37.57, 15
37.58, 13
37.59, 9
37.6, 11
37.61, 8
37.62, 8
37.63, 9
37.64, 11
37.65, 14
37.66, 16
37.67, 13
37.68, 13
37.69, 17
37.7, 9
37.71, 11
37.72, 13
37.73, 16
37.74, 13
37.75, 9
37.76, 5
37.77, 14
37.78, 11
37.79, 14
37.8, 11
37.81, 13
37.82, 7
37.83, 10
37.84, 15
37.85, 6
37.86, 16
37.87, 12
37.88, 8
37.89, 13
37.9, 11
37.91, 10
37.92, 16
37.93, 12
37.94, 12
37.95, 8
37.96, 18
37.97, 19
37.98, 7
37.99, 10
38, 8
38.01, 10
38.02, 19
38.03, 17
38.04, 12
38.05, 16
38.06, 12
38.07, 6
38.08, 7
38.09, 7
38.1, 12
38.11, 15
38.12, 6
38.13, 10
38.14, 12
38.15, 10
38.16, 10
38.17, 16
38.18, 14
38.19, 10
38.2, 11
38.21, 14
38.22, 12
38.23, 12
38.24, 11
38.25, 16
38.26, 5
38.27, 9
38.28, 19
38.29, 15
38.3, 12
38.31, 14
38.32, 10
38.33, 6
38.34, 11
38.35, 12
38.36, 11
38.37, 11
38.38, 7
38.39, 12
38.4, 17
38.41, 11
38.42, 14
38.43, 12
38.44, 16
38.45, 15
38.46, 11
38.47, 13
38.48, 11
38.49, 7
38.5, 11
38.51, 9
38.52, 9
38.53, 17
38.54, 6
38.55, 5
38.56, 10
38.57, 13
38.58, 9
38.59, 13
38.6, 9
38.61, 17
38.62, 9
38.63, 18
38.64, 6
38.65, 18
38.66, 10
38.67, 6
38.68, 13
38.69, 22
38.7, 9
38.71, 8
38.72, 9
38.73, 9
38.74, 9
38.75, 13
38.76, 12
38.77, 9
38.78, 14
38.79, 14
38.8, 15
38.81, 5
38.82, 9
38.83, 9
38.84, 13
38.85, 8
38.86, 12
38.87, 7
38.88, 9
38.89, 8
38.9, 11
38.91, 13
38.92, 11
38.93, 9
38.94, 7
38.95, 8
38.96, 12
38.97, 12
38.98, 9
38.99, 14
39, 9
39.01, 10
39.02, 10
39.03, 7
39.04, 11
39.05, 14
39.06, 18
39.07, 10
39.08, 8
39.09, 14
39.1, 6
39.11, 12
39.12, 5
39.13, 11
39.14, 13
39.15, 12
39.16, 11
39.17, 14
39.18, 10
39.19, 12
39.2, 11
39.21, 10
39.22, 11
39.23, 13
39.24, 8
39.25, 8
39.26, 9
39.27, 8
39.28, 12
39.29, 10
39.3, 4
39.31, 11
39.32, 9
39.33, 9
39.34, 16
39.35, 15
39.36, 10
39.37, 15
39.38, 5
39.39, 12
39.4, 7
39.41, 10
39.42, 11
39.43, 8
39.44, 15
39.45, 8
39.46, 7
39.47, 17
39.48, 9
39.49, 11
39.5, 13
39.51, 9
39.52, 11
39.53, 8
39.54, 10
39.55, 11
39.56, 10
39.57, 4
39.58, 15
39.59, 9
39.6, 9
39.61, 9
39.62, 2
39.63, 6
39.64, 19
39.65, 13
39.66, 10
39.67, 11
39.68, 9
39.69, 13
39.7, 13
39.71, 9
39.72, 12
39.73, 12
39.74, 12
39.75, 13
39.76, 16
39.77, 11
39.78, 11
39.79, 14
39.8, 5
39.81, 8
39.82, 9
39.83, 9
39.84, 5
39.85, 11
39.86, 12
39.87, 9
39.88, 16
39.89, 9
39.9, 14
39.91, 8
39.92, 8
39.93, 5
39.94, 19
39.95, 11
39.96, 8
39.97, 12
39.98, 15
39.99, 11
40, 12
40.01, 9
40.02, 12
40.03, 7
40.04, 9
40.05, 9
40.06, 13
40.07, 8
40.08, 8
40.09, 11
40.1, 12
40.11, 9
40.12, 15
40.13, 20
40.14, 11
40.15, 9
40.16, 7
40.17, 14
40.18, 15
40.19, 6
40.2, 9
40.21, 14
40.22, 12
40.23, 7
40.24, 11
40.25, 9
40.26, 12
40.27, 12
40.28, 17
40.29, 10
40.3, 17
40.31, 10
40.32, 10
40.33, 15
40.34, 9
40.35, 16
40.36, 11
40.37, 7
40.38, 9
40.39, 10
40.4, 11
40.41, 6
40.42, 13
40.43, 11
40.44, 9
40.45, 11
40.46, 8
40.47, 13
40.48, 6
40.49, 11
40.5, 12
40.51, 13
40.52, 14
40.53, 9
40.54, 9
40.55, 11
40.56, 11
40.57, 11
40.58, 11
40.59, 14
40.6, 11
40.61, 15
40.62, 17
40.63, 15
40.64, 13
40.65, 7
40.66, 12
40.67, 11
40.68, 8
40.69, 7
40.7, 12
40.71, 13
40.72, 16
40.73, 11
40.74, 8
40.75, 14
40.76, 7
40.77, 18
40.78, 5
40.79, 12
40.8, 17
40.81, 17
40.82, 16
40.83, 20
40.84, 18
40.85, 26
40.86, 33
40.87, 47
40.88, 37
40.89, 22
40.9, 30
40.91, 19
40.92, 33
40.93, 19
40.94, 20
40.95, 16
40.96, 21
40.97, 11
40.98, 17
40.99, 15
41, 24
41.01, 11
41.02, 8
41.03, 15
41.04, 22
41.05, 6
41.06, 11
41.07, 15
41.08, 15
41.09, 13
41.1, 12
41.11, 12
41.12, 18
41.13, 11
41.14, 14
41.15, 14
41.16, 19
41.17, 14
41.18, 19
41.19, 14
41.2, 13
41.21, 10
41.22, 9
41.23, 11
41.24, 18
41.25, 11
41.26, 8
41.27, 13
41.28, 12
41.29, 5
41.3, 6
41.31, 11
41.32, 9
41.33, 11
41.34, 4
41.35, 13
41.36, 11
41.37, 10
41.38, 17
41.39, 13
41.4, 8
41.41, 19
41.42, 13
41.43, 13
41.44, 12
41.45, 16
41.46, 7
41.47, 14
41.48, 10
41.49, 10
41.5, 11
41.51, 9
41.52, 21
41.53, 16
41.54, 7
41.55, 11
41.56, 16
41.57, 12
41.58, 11
41.59, 11
41.6, 12
41.61, 10
41.62, 5
41.63, 13
41.64, 15
41.65, 13
41.66, 13
41.67, 10
41.68, 11
41.69, 12
41.7, 9
41.71, 12
41.72, 7
41.73, 11
41.74, 9
41.75, 7
41.76, 12
41.77, 10
41.78, 22
41.79, 11
41.8, 17
41.81, 10
41.82, 12
41.83, 10
41.84, 5
41.85, 14
41.86, 12
41.87, 14
41.88, 12
41.89, 11
41.9, 13
41.91, 11
41.92, 14
41.93, 3
41.94, 11
41.95, 10
41.96, 12
41.97, 11
41.98, 18
41.99, 10
42, 15
42.01, 19
42.02, 16
42.03, 10
42.04, 9
42.05, 13
42.06, 8
42.07, 7
42.08, 13
42.09, 9
42.1, 7
42.11, 13
42.12, 12
42.13, 11
42.14, 9
42.15, 16
42.16, 10
42.17, 15
42.18, 8
42.19, 7
42.2, 9
42.21, 9
42.22, 7
42.23, 11
42.24, 11
42.25, 6
42.26, 9
42.27, 9
42.28, 6
42.29, 15
42.3, 10
42.31, 16
42.32, 9
42.33, 13
42.34, 10
42.35, 9
42.36, 8
42.37, 15
42.38, 17
42.39, 11
42.4, 10
42.41, 17
42.42, 5
42.43, 15
42.44, 12
42.45, 16
42.46, 9
42.47, 9
42.48, 17
42.49, 12
42.5, 14
42.51, 16
42.52, 14
42.53, 10
42.54, 9
42.55, 14
42.56, 11
42.57, 14
42.58, 7
42.59, 8
42.6, 15
42.61, 11
42.62, 8
42.63, 18
42.64, 6
42.65, 11
42.66, 8
42.67, 10
42.68, 14
42.69, 10
42.7, 10
42.71, 11
42.72, 14
42.73, 15
42.74, 5
42.75, 11
42.76, 11
42.77, 11
42.78, 10
42.79, 12
42.8, 21
42.81, 15
42.82, 11
42.83, 12
42.84, 15
42.85, 8
42.86, 7
42.87, 13
42.88, 9
42.89, 11
42.9, 5
42.91, 13
42.92, 7
42.93, 13
42.94, 13
42.95, 8
42.96, 17
42.97, 8
42.98, 15
42.99, 13
43, 7
43.01, 14
43.02, 9
43.03, 8
43.04, 11
43.05, 7
43.06, 10
43.07, 13
43.08, 11
43.09, 14
43.1, 10
43.11, 11
43.12, 12
43.13, 13
43.14, 10
43.15, 7
43.16, 8
43.17, 10
43.18, 7
43.19, 12
43.2, 14
43.21, 12
43.22, 14
43.23, 14
43.24, 12
43.25, 13
43.26, 8
43.27, 12
43.28, 16
43.29, 5
43.3, 9
43.31, 15
43.32, 13
43.33, 15
43.34, 18
43.35, 8
43.36, 13
43.37, 11
43.38, 8
43.39, 12
43.4, 4
43.41, 8
43.42, 9
43.43, 20
43.44, 12
43.45, 17
43.46, 7
43.47, 8
43.48, 18
43.49, 8
43.5, 18
43.51, 12
43.52, 12
43.53, 11
43.54, 19
43.55, 7
43.56, 11
43.57, 11
43.58, 5
43.59, 13
43.6, 15
43.61, 5
43.62, 8
43.63, 14
43.64, 14
43.65, 14
43.66, 7
43.67, 11
43.68, 9
43.69, 16
43.7, 21
43.71, 12
43.72, 18
43.73, 9
43.74, 6
43.75, 13
43.76, 7
43.77, 16
43.78, 10
43.79, 11
43.8, 13
43.81, 9
43.82, 17
43.83, 10
43.84, 12
43.85, 10
43.86, 8
43.87, 11
43.88, 14
43.89, 17
43.9, 12
43.91, 15
43.92, 18
43.93, 12
43.94, 12
43.95, 15
43.96, 13
43.97, 15
43.98, 17
43.99, 11
44, 18
44.01, 15
44.02, 14
44.03, 10
44.04, 16
44.05, 16
44.06, 14
44.07, 13
44.08, 11
44.09, 17
44.1, 21
44.11, 11
44.12, 16
44.13, 17
44.14, 18
44.15, 12
44.16, 10
44.17, 12
44.18, 12
44.19, 11
44.2, 18
44.21, 9
44.22, 18
44.23, 12
44.24, 7
44.25, 16
44.26, 8
44.27, 19
44.28, 15
44.29, 18
44.3, 12
44.31, 14
44.32, 7
44.33, 16
44.34, 11
44.35, 18
44.36, 11
44.37, 15
44.38, 8
44.39, 17
44.4, 14
44.41, 14
44.42, 7
44.43, 19
44.44, 14
44.45, 13
44.46, 15
44.47, 17
44.48, 11
44.49, 16
44.5, 23
44.51, 11
44.52, 19
44.53, 6
44.54, 12
44.55, 10
44.56, 15
44.57, 13
44.58, 10
44.59, 11
44.6, 14
44.61, 16
44.62, 20
44.63, 15
44.64, 16
44.65, 17
44.66, 11
44.67, 24
44.68, 14
44.69, 11
44.7, 17
44.71, 16
44.72, 9
44.73, 19
44.74, 15
44.75, 17
44.76, 15
44.77, 14
44.78, 14
44.79, 17
44.8, 16
44.81, 16
44.82, 13
44.83, 9
44.84, 21
44.85, 15
44.86, 8
44.87, 9
44.88, 15
44.89, 12
44.9, 17
44.91, 12
44.92, 12
44.93, 18
44.94, 10
44.95, 16
44.96, 15
44.97, 19
44.98, 10
44.99, 18
45, 14
45.01, 20
45.02, 22
45.03, 17
45.04, 16
45.05, 23
45.06, 10
45.07, 19
45.08, 20
45.09, 18
45.1, 20
45.11, 19
45.12, 18
45.13, 23
45.14, 14
45.15, 24
45.16, 23
45.17, 20
45.18, 20
45.19, 17
45.2, 23
45.21, 29
45.22, 34
45.23, 32
45.24, 35
45.25, 34
45.26, 42
45.27, 42
45.28, 51
45.29, 44
45.3, 53
45.31, 47
45.32, 57
45.33, 68
45.34, 83
45.35, 74
45.36, 110
45.37, 137
45.38, 142
45.39, 184
45.4, 259
45.41, 315
45.42, 441
45.43, 568
45.44, 703
45.45, 854
45.46, 994
45.47, 972
45.48, 1085
45.49, 987
45.5, 820
45.51, 719
45.52, 602
45.53, 571
45.54, 434
45.55, 456
45.56, 528
45.57, 539
45.58, 533
45.59, 603
45.6, 553
45.61, 486
45.62, 416
45.63, 352
45.64, 269
45.65, 229
45.66, 177
45.67, 134
45.68, 123
45.69, 90
45.7, 74
45.71, 67
45.72, 45
45.73, 46
45.74, 40
45.75, 32
45.76, 20
45.77, 28
45.78, 30
45.79, 36
45.8, 41
45.81, 25
45.82, 17
45.83, 17
45.84, 28
45.85, 30
45.86, 23
45.87, 26
45.88, 20
45.89, 21
45.9, 22
45.91, 17
45.92, 23
45.93, 15
45.94, 24
45.95, 10
45.96, 15
45.97, 15
45.98, 13
45.99, 19
46, 27
46.01, 12
46.02, 16
46.03, 21
46.04, 26
46.05, 15
46.06, 18
46.07, 9
46.08, 23
46.09, 16
46.1, 23
46.11, 12
46.12, 14
46.13, 13
46.14, 20
46.15, 9
46.16, 17
46.17, 12
46.18, 16
46.19, 19
46.2, 10
46.21, 15
46.22, 10
46.23, 15
46.24, 16
46.25, 14
46.26, 10
46.27, 17
46.28, 15
46.29, 10
46.3, 9
46.31, 14
46.32, 21
46.33, 10
46.34, 13
46.35, 11
46.36, 10
46.37, 16
46.38, 13
46.39, 21
46.4, 10
46.41, 18
46.42, 13
46.43, 22
46.44, 19
46.45, 18
46.46, 13
46.47, 16
46.48, 12
46.49, 9
46.5, 12
46.51, 18
46.52, 18
46.53, 9
46.54, 21
46.55, 9
46.56, 11
46.57, 18
46.58, 11
46.59, 18
46.6, 12
46.61, 12
46.62, 15
46.63, 7
46.64, 15
46.65, 11
46.66, 13
46.67, 15
46.68, 19
46.69, 16
46.7, 15
46.71, 9
46.72, 13
46.73, 16
46.74, 20
46.75, 14
46.76, 16
46.77, 15
46.78, 15
46.79, 11
46.8, 13
46.81, 16
46.82, 11
46.83, 16
46.84, 10
46.85, 14
46.86, 10
46.87, 10
46.88, 16
46.89, 12
46.9, 12
46.91, 17
46.92, 12
46.93, 13
46.94, 12
46.95, 20
46.96, 18
46.97, 11
46.98, 12
46.99, 8
47, 12
47.01, 14
47.02, 16
47.03, 7
47.04, 12
47.05, 9
47.06, 14
47.07, 10
47.08, 16
47.09, 16
47.1, 16
47.11, 7
47.12, 11
47.13, 12
47.14, 21
47.15, 13
47.16, 13
47.17, 15
47.18, 15
47.19, 11
47.2, 10
47.21, 8
47.22, 7
47.23, 6
47.24, 13
47.25, 10
47.26, 11
47.27, 16
47.28, 12
47.29, 11
47.3, 17
47.31, 7
47.32, 13
47.33, 12
47.34, 13
47.35, 14
47.36, 16
47.37, 14
47.38, 9
47.39, 13
47.4, 12
47.41, 11
47.42, 11
47.43, 13
47.44, 18
47.45, 11
47.46, 16
47.47, 7
47.48, 15
47.49, 13
47.5, 15
47.51, 14
47.52, 21
47.53, 17
47.54, 11
47.55, 8
47.56, 17
47.57, 11
47.58, 14
47.59, 12
47.6, 12
47.61, 11
47.62, 11
47.63, 18
47.64, 14
47.65, 21
47.66, 4
47.67, 12
47.68, 10
47.69, 12
47.7, 9
47.71, 13
47.72, 11
47.73, 20
47.74, 11
47.75, 9
47.76, 14
47.77, 17
47.78, 16
47.79, 7
47.8, 12
47.81, 12
47.82, 14
47.83, 9
47.84, 9
47.85, 5
47.86, 14
47.87, 16
47.88, 13
47.89, 13
47.9, 15
47.91, 6
47.92, 7
47.93, 11
47.94, 9
47.95, 14
47.96, 14
47.97, 14
47.98, 16
47.99, 18
48, 14
48.01, 7
48.02, 14
48.03, 11
48.04, 9
48.05, 10
48.06, 17
48.07, 6
48.08, 10
48.09, 9
48.1, 16
48.11, 12
48.12, 8
48.13, 10
48.14, 16
48.15, 12
48.16, 14
48.17, 11
48.18, 9
48.19, 9
48.2, 15
48.21, 17
48.22, 12
48.23, 15
48.24, 15
48.25, 13
48.26, 10
48.27, 11
48.28, 13
48.29, 13
48.3, 8
48.31, 15
48.32, 15
48.33, 5
48.34, 13
48.35, 10
48.36, 15
48.37, 4
48.38, 12
48.39, 18
48.4, 9
48.41, 17
48.42, 11
48.43, 11
48.44, 20
48.45, 15
48.46, 6
48.47, 14
48.48, 8
48.49, 12
48.5, 9
48.51, 13
48.52, 10
48.53, 15
48.54, 11
48.55, 13
48.56, 10
48.57, 11
48.58, 5
48.59, 13
48.6, 14
48.61, 13
48.62, 10
48.63, 14
48.64, 5
48.65, 6
48.66, 11
48.67, 15
48.68, 7
48.69, 11
48.7, 13
48.71, 13
48.72, 7
48.73, 13
48.74, 13
48.75, 9
48.76, 9
48.77, 9
48.78, 9
48.79, 16
48.8, 16
48.81, 6
48.82, 12
48.83, 9
48.84, 11
48.85, 9
48.86, 13
48.87, 8
48.88, 10
48.89, 7
48.9, 12
48.91, 9
48.92, 15
48.93, 9
48.94, 14
48.95, 3
48.96, 11
48.97, 11
48.98, 16
48.99, 11
49, 8
49.01, 16
49.02, 9
49.03, 5
49.04, 2
49.05, 15
49.06, 7
49.07, 8
49.08, 14
49.09, 16
49.1, 12
49.11, 19
49.12, 9
49.13, 5
49.14, 8
49.15, 13
49.16, 4
49.17, 12
49.18, 7
49.19, 14
49.2, 4
49.21, 12
49.22, 11
49.23, 6
49.24, 11
49.25, 8
49.26, 17
49.27, 10
49.28, 6
49.29, 7
49.3, 15
49.31, 12
49.32, 9
49.33, 8
49.34, 5
49.35, 13
49.36, 13
49.37, 15
49.38, 10
49.39, 12
49.4, 14
49.41, 9
49.42, 11
49.43, 8
49.44, 7
49.45, 7
49.46, 12
49.47, 11
49.48, 19
49.49, 11
49.5, 8
49.51, 15
49.52, 9
49.53, 9
49.54, 15
49.55, 9
49.56, 9
49.57, 14
49.58, 9
49.59, 7
49.6, 13
49.61, 13
49.62, 9
49.63, 6
49.64, 9
49.65, 10
49.66, 13
49.67, 11
49.68, 9
49.69, 9
49.7, 6
49.71, 12
49.72, 9
49.73, 6
49.74, 10
49.75, 15
49.76, 15
49.77, 15
49.78, 8
49.79, 2
49.8, 8
49.81, 7
49.82, 13
49.83, 20
49.84, 22
49.85, 13
49.86, 18
49.87, 10
49.88, 11
49.89, 16
49.9, 16
49.91, 14
49.92, 15
49.93, 17
49.94, 10
49.95, 15
49.96, 12
49.97, 16
49.98, 12
49.99, 11
50, 4
50.01, 7
50.02, 10
50.03, 10
50.04, 8
50.05, 10
50.06, 15
50.07, 7
50.08, 12
50.09, 10
50.1, 20
50.11, 8
50.12, 8
50.13, 3
50.14, 9
50.15, 10
50.16, 9
50.17, 13
50.18, 15
50.19, 9
50.2, 7
50.21, 13
50.22, 9
50.23, 9
50.24, 12
50.25, 6
50.26, 14
50.27, 9
50.28, 9
50.29, 14
50.3, 11
50.31, 8
50.32, 9
50.33, 12
50.34, 14
50.35, 11
50.36, 13
50.37, 11
50.38, 11
50.39, 11
50.4, 10
50.41, 8
50.42, 10
50.43, 14
50.44, 7
50.45, 13
50.46, 21
50.47, 11
50.48, 11
50.49, 10
50.5, 8
50.51, 9
50.52, 9
50.53, 10
50.54, 10
50.55, 10
50.56, 14
50.57, 18
50.58, 11
50.59, 14
50.6, 16
50.61, 18
50.62, 22
50.63, 17
50.64, 20
50.65, 18
50.66, 14
50.67, 16
50.68, 14
50.69, 22
50.7, 8
50.71, 13
50.72, 6
50.73, 7
50.74, 19
50.75, 9
50.76, 14
50.77, 14
50.78, 8
50.79, 8
50.8, 12
50.81, 8
50.82, 6
50.83, 8
50.84, 5
50.85, 7
50.86, 14
50.87, 8
50.88, 10
50.89, 5
50.9, 10
50.91, 13
50.92, 9
50.93, 4
50.94, 8
50.95, 14
50.96, 11
50.97, 13
50.98, 14
50.99, 6
51, 13
51.01, 8
51.02, 13
51.03, 12
51.04, 12
51.05, 7
51.06, 12
51.07, 7
51.08, 12
51.09, 7
51.1, 5
51.11, 11
51.12, 12
51.13, 7
51.14, 12
51.15, 17
51.16, 16
51.17, 13
51.18, 12
51.19, 6
51.2, 14
51.21, 10
51.22, 10
51.23, 4
51.24, 10
51.25, 8
51.26, 13
51.27, 8
51.28, 5
51.29, 5
51.3, 9
51.31, 2
51.32, 1
51.33, 12
51.34, 10
51.35, 6
51.36, 10
51.37, 10
51.38, 14
51.39, 7
51.4, 11
51.41, 14
51.42, 10
51.43, 11
51.44, 17
51.45, 12
51.46, 12
51.47, 11
51.48, 7
51.49, 12
51.5, 12
51.51, 11
51.52, 9
51.53, 15
51.54, 8
51.55, 8
51.56, 9
51.57, 10
51.58, 11
51.59, 6
51.6, 15
51.61, 6
51.62, 10
51.63, 8
51.64, 12
51.65, 10
51.66, 12
51.67, 13
51.68, 13
51.69, 9
51.7, 10
51.71, 9
51.72, 13
51.73, 11
51.74, 16
51.75, 10
51.76, 14
51.77, 14
51.78, 10
51.79, 3
51.8, 12
51.81, 10
51.82, 11
51.83, 10
51.84, 11
51.85, 14
51.86, 6
51.87, 10
51.88, 14
51.89, 16
51.9, 6
51.91, 9
51.92, 7
51.93, 7
51.94, 12
51.95, 3
51.96, 6
51.97, 10
51.98, 10
51.99, 7
52, 8
52.01, 11
52.02, 9
52.03, 8
52.04, 10
52.05, 7
52.06, 9
52.07, 9
52.08, 11
52.09, 7
52.1, 10
52.11, 7
52.12, 6
52.13, 11
52.14, 7
52.15, 11
52.16, 8
52.17, 9
52.18, 8
52.19, 11
52.2, 14
52.21, 14
52.22, 4
52.23, 12
52.24, 9
52.25, 16
52.26, 11
52.27, 8
52.28, 10
52.29, 12
52.3, 7
52.31, 12
52.32, 10
52.33, 13
52.34, 7
52.35, 6
52.36, 14
52.37, 13
52.38, 12
52.39, 8
52.4, 9
52.41, 10
52.42, 17
52.43, 12
52.44, 15
52.45, 13
52.46, 9
52.47, 6
52.48, 8
52.49, 10
52.5, 13
52.51, 13
52.52, 11
52.53, 12
52.54, 10
52.55, 8
52.56, 10
52.57, 9
52.58, 5
52.59, 4
52.6, 15
52.61, 9
52.62, 13
52.63, 16
52.64, 8
52.65, 14
52.66, 12
52.67, 12
52.68, 10
52.69, 10
52.7, 14
52.71, 10
52.72, 18
52.73, 8
52.74, 10
52.75, 16
52.76, 11
52.77, 9
52.78, 14
52.79, 7
52.8, 14
52.81, 11
52.82, 9
52.83, 7
52.84, 4
52.85, 9
52.86, 9
52.87, 7
52.88, 9
52.89, 9
52.9, 9
52.91, 6
52.92, 13
52.93, 7
52.94, 13
52.95, 8
52.96, 11
52.97, 9
52.98, 14
52.99, 10
53, 8
53.01, 6
53.02, 7
53.03, 8
53.04, 7
53.05, 11
53.06, 17
53.07, 5
53.08, 11
53.09, 10
53.1, 9
53.11, 12
53.12, 12
53.13, 8
53.14, 9
53.15, 13
53.16, 8
53.17, 11
53.18, 10
53.19, 8
53.2, 13
53.21, 11
53.22, 8
53.23, 14
53.24, 12
53.25, 12
53.26, 16
53.27, 14
53.28, 12
53.29, 15
53.3, 12
53.31, 11
53.32, 13
53.33, 11
53.34, 11
53.35, 15
53.36, 14
53.37, 16
53.38, 9
53.39, 8
53.4, 14
53.41, 8
53.42, 10
53.43, 10
53.44, 14
53.45, 10
53.46, 1
53.47, 9
53.48, 13
53.49, 15
53.5, 15
53.51, 5
53.52, 7
53.53, 11
53.54, 6
53.55, 11
53.56, 2
53.57, 8
53.58, 10
53.59, 5
53.6, 19
53.61, 9
53.62, 5
53.63, 13
53.64, 9
53.65, 10
53.66, 8
53.67, 9
53.68, 12
53.69, 21
53.7, 17
53.71, 12
53.72, 14
53.73, 6
53.74, 12
53.75, 15
53.76, 13
53.77, 17
53.78, 11
53.79, 17
53.8, 16
53.81, 23
53.82, 27
53.83, 20
53.84, 26
53.85, 28
53.86, 40
53.87, 26
53.88, 34
53.89, 48
53.9, 37
53.91, 32
53.92, 29
53.93, 25
53.94, 26
53.95, 32
53.96, 40
53.97, 21
53.98, 22
53.99, 30
54, 26
54.01, 19
54.02, 27
54.03, 23
54.04, 31
54.05, 26
54.06, 18
54.07, 17
54.08, 19
54.09, 11
54.1, 12
54.11, 15
54.12, 11
54.13, 9
54.14, 13
54.15, 4
54.16, 11
54.17, 14
54.18, 15
54.19, 14
54.2, 15
54.21, 17
54.22, 14
54.23, 8
54.24, 8
54.25, 10
54.26, 14
54.27, 8
54.28, 14
54.29, 13
54.3, 14
54.31, 14
54.32, 7
54.33, 9
54.34, 12
54.35, 10
54.36, 10
54.37, 8
54.38, 8
54.39, 13
54.4, 7
54.41, 5
54.42, 14
54.43, 12
54.44, 10
54.45, 8
54.46, 10
54.47, 12
54.48, 6
54.49, 8
54.5, 12
54.51, 8
54.52, 13
54.53, 13
54.54, 7
54.55, 12
54.56, 10
54.57, 7
54.58, 13
54.59, 17
54.6, 7
54.61, 10
54.62, 14
54.63, 11
54.64, 13
54.65, 9
54.66, 6
54.67, 15
54.68, 14
54.69, 15
54.7, 13
54.71, 9
54.72, 15
54.73, 6
54.74, 9
54.75, 12
54.76, 10
54.77, 10
54.78, 11
54.79, 8
54.8, 11
54.81, 14
54.82, 9
54.83, 16
54.84, 14
54.85, 13
54.86, 10
54.87, 15
54.88, 10
54.89, 10
54.9, 6
54.91, 7
54.92, 11
54.93, 8
54.94, 13
54.95, 12
54.96, 12
54.97, 8
54.98, 12
54.99, 11
55, 13
55.01, 8
55.02, 9
55.03, 12
55.04, 18
55.05, 12
55.06, 13
55.07, 9
55.08, 15
55.09, 8
55.1, 11
55.11, 13
55.12, 16
55.13, 12
55.14, 10
55.15, 14
55.16, 12
55.17, 10
55.18, 16
55.19, 7
55.2, 9
55.21, 9
55.22, 9
55.23, 9
55.24, 10
55.25, 13
55.26, 10
55.27, 6
55.28, 19
55.29, 12
55.3, 11
55.31, 9
55.32, 14
55.33, 13
55.34, 18
55.35, 13
55.36, 9
55.37, 16
55.38, 10
55.39, 17
55.4, 8
55.41, 9
55.42, 5
55.43, 9
55.44, 16
55.45, 15
55.46, 14
55.47, 11
55.48, 13
55.49, 6
55.5, 8
55.51, 8
55.52, 6
55.53, 14
55.54, 9
55.55, 15
55.56, 4
55.57, 15
55.58, 11
55.59, 4
55.6, 9
55.61, 16
55.62, 9
55.63, 12
55.64, 10
55.65, 16
55.66, 6
55.67, 10
55.68, 8
55.69, 14
55.7, 16
55.71, 11
55.72, 8
55.73, 9
55.74, 15
55.75, 6
55.76, 9
55.77, 6
55.78, 9
55.79, 10
55.8, 12
55.81, 13
55.82, 12
55.83, 12
55.84, 8
55.85, 8
55.86, 6
55.87, 10
55.88, 11
55.89, 9
55.9, 12
55.91, 12
55.92, 10
55.93, 8
55.94, 10
55.95, 16
55.96, 15
55.97, 22
55.98, 15
55.99, 13
56, 9
56.01, 14
56.02, 5
56.03, 13
56.04, 17
56.05, 18
56.06, 9
56.07, 13
56.08, 17
56.09, 12
56.1, 20
56.11, 14
56.12, 9
56.13, 13
56.14, 19
56.15, 9
56.16, 13
56.17, 12
56.18, 17
56.19, 20
56.2, 14
56.21, 23
56.22, 11
56.23, 18
56.24, 21
56.25, 18
56.26, 18
56.27, 25
56.28, 19
56.29, 25
56.3, 19
56.31, 17
56.32, 27
56.33, 27
56.34, 26
56.35, 23
56.36, 29
56.37, 38
56.38, 39
56.39, 52
56.4, 58
56.41, 71
56.42, 100
56.43, 109
56.44, 115
56.45, 159
56.46, 175
56.47, 235
56.48, 264
56.49, 227
56.5, 268
56.51, 260
56.52, 198
56.53, 198
56.54, 164
56.55, 143
56.56, 109
56.57, 125
56.58, 123
56.59, 103
56.6, 122
56.61, 108
56.62, 129
56.63, 116
56.64, 129
56.65, 129
56.66, 124
56.67, 113
56.68, 116
56.69, 115
56.7, 75
56.71, 58
56.72, 53
56.73, 53
56.74, 49
56.75, 54
56.76, 30
56.77, 35
56.78, 28
56.79, 26
56.8, 22
56.81, 23
56.82, 19
56.83, 20
56.84, 22
56.85, 10
56.86, 14
56.87, 17
56.88, 12
56.89, 16
56.9, 8
56.91, 15
56.92, 12
56.93, 13
56.94, 11
56.95, 13
56.96, 11
56.97, 8
56.98, 11
56.99, 11
57, 11
57.01, 9
57.02, 15
57.03, 18
57.04, 18
57.05, 16
57.06, 13
57.07, 17
57.08, 10
57.09, 10
57.1, 12
57.11, 9
57.12, 13
57.13, 13
57.14, 11
57.15, 10
57.16, 11
57.17, 16
57.18, 13
57.19, 11
57.2, 9
57.21, 11
57.22, 7
57.23, 4
57.24, 15
57.25, 11
57.26, 10
57.27, 9
57.28, 8
57.29, 11
57.3, 9
57.31, 8
57.32, 13
57.33, 11
57.34, 11
57.35, 9
57.36, 13
57.37, 13
57.38, 13
57.39, 15
57.4, 7
57.41, 10
57.42, 13
57.43, 12
57.44, 9
57.45, 10
57.46, 10
57.47, 13
57.48, 14
57.49, 8
57.5, 14
57.51, 12
57.52, 8
57.53, 10
57.54, 17
57.55, 11
57.56, 9
57.57, 13
57.58, 11
57.59, 13
57.6, 9
57.61, 7
57.62, 11
57.63, 18
57.64, 9
57.65, 11
57.66, 4
57.67, 10
57.68, 10
57.69, 9
57.7, 9
57.71, 12
57.72, 14
57.73, 8
57.74, 10
57.75, 8
57.76, 13
57.77, 12
57.78, 15
57.79, 12
57.8, 11
57.81, 12
57.82, 12
57.83, 10
57.84, 10
57.85, 11
57.86, 11
57.87, 8
57.88, 11
57.89, 6
57.9, 18
57.91, 8
57.92, 10
57.93, 12
57.94, 11
57.95, 5
57.96, 11
57.97, 11
57.98, 8
57.99, 17
58, 12
58.01, 8
58.02, 7
58.03, 5
58.04, 5
58.05, 9
58.06, 10
58.07, 6
58.08, 11
58.09, 8
58.1, 5
58.11, 13
58.12, 8
58.13, 7
58.14, 7
58.15, 9
58.16, 12
58.17, 11
58.18, 7
58.19, 12
58.2, 9
58.21, 3
58.22, 10
58.23, 8
58.24, 1
58.25, 10
58.26, 11
58.27, 10
58.28, 8
58.29, 8
58.3, 5
58.31, 14
58.32, 11
58.33, 9
58.34, 8
58.35, 11
58.36, 11
58.37, 6
58.38, 10
58.39, 11
58.4, 11
58.41, 8
58.42, 10
58.43, 8
58.44, 8
58.45, 6
58.46, 11
58.47, 9
58.48, 4
58.49, 7
58.5, 12
58.51, 8
58.52, 13
58.53, 13
58.54, 14
58.55, 13
58.56, 19
58.57, 8
58.58, 8
58.59, 7
58.6, 11
58.61, 12
58.62, 12
58.63, 13
58.64, 10
58.65, 8
58.66, 9
58.67, 12
58.68, 10
58.69, 11
58.7, 11
58.71, 11
58.72, 7
58.73, 14
58.74, 5
58.75, 8
58.76, 14
58.77, 12
58.78, 17
58.79, 7
58.8, 12
58.81, 8
58.82, 11
58.83, 11
58.84, 12
58.85, 16
58.86, 18
58.87, 10
58.88, 8
58.89, 8
58.9, 9
58.91, 8
58.92, 8
58.93, 16
58.94, 9
58.95, 7
58.96, 11
58.97, 9
58.98, 13
58.99, 7
59, 10
59.01, 12
59.02, 11
59.03, 11
59.04, 13
59.05, 9
59.06, 17
59.07, 5
59.08, 8
59.09, 14
59.1, 10
59.11, 13
59.12, 9
59.13, 15
59.14, 11
59.15, 12
59.16, 11
59.17, 8
59.18, 15
59.19, 10
59.2, 10
59.21, 10
59.22, 14
59.23, 15
59.24, 13
59.25, 8
59.26, 11
59.27, 6
59.28, 14
59.29, 8
59.3, 11
59.31, 10
59.32, 12
59.33, 9
59.34, 14
59.35, 8
59.36, 9
59.37, 11
59.38, 13
59.39, 7
59.4, 10
59.41, 10
59.42, 11
59.43, 19
59.44, 8
59.45, 7
59.46, 10
59.47, 5
59.48, 10
59.49, 6
59.5, 9
59.51, 9
59.52, 11
59.53, 13
59.54, 9
59.55, 9
59.56, 8
59.57, 11
59.58, 11
59.59, 18
59.6, 5
59.61, 9
59.62, 14
59.63, 8
59.64, 7
59.65, 13
59.66, 13
59.67, 7
59.68, 9
59.69, 15
59.7, 10
59.71, 11
59.72, 7
59.73, 8
59.74, 12
59.75, 6
59.76, 7
59.77, 14
59.78, 10
59.79, 5
59.8, 10
59.81, 10
59.82, 9
59.83, 11
59.84, 9
59.85, 10
59.86, 9
59.87, 8
59.88, 7
59.89, 9
59.9, 8
59.91, 14
59.92, 8
59.93, 6
59.94, 10
59.95, 7
59.96, 9
59.97, 5
59.98, 11
59.99, 11
60, 8
60.01, 7
60.02, 10
60.03, 12
60.04, 13
60.05, 17
60.06, 13
60.07, 12
60.08, 12
60.09, 13
60.1, 11
60.11, 5
60.12, 7
60.13, 3
60.14, 10
60.15, 7
60.16, 9
60.17, 7
60.18, 16
60.19, 11
60.2, 12
60.21, 10
60.22, 5
60.23, 9
60.24, 9
60.25, 19
60.26, 11
60.27, 6
60.28, 3
60.29, 14
60.3, 8
60.31, 10
60.32, 8
60.33, 8
60.34, 7
60.35, 10
60.36, 10
60.37, 11
60.38, 13
60.39, 7
60.4, 9
60.41, 14
60.42, 7
60.43, 9
60.44, 9
60.45, 7
60.46, 9
60.47, 10
60.48, 5
60.49, 9
60.5, 8
60.51, 4
60.52, 7
60.53, 6
60.54, 9
60.55, 10
60.56, 9
60.57, 9
60.58, 8
60.59, 11
60.6, 7
60.61, 7
60.62, 10
60.63, 13
60.64, 10
60.65, 9
60.66, 8
60.67, 11
60.68, 7
60.69, 7
60.7, 14
60.71, 6
60.72, 12
60.73, 10
60.74, 10
60.75, 8
60.76, 7
60.77, 11
60.78, 11
60.79, 13
60.8, 22
60.81, 14
60.82, 11
60.83, 7
60.84, 7
60.85, 8
60.86, 8
60.87, 6
60.88, 7
60.89, 10
60.9, 12
60.91, 11
60.92, 8
60.93, 5
60.94, 14
60.95, 7
60.96, 13
60.97, 16
60.98, 5
60.99, 11
61, 9
61.01, 12
61.02, 8
61.03, 10
61.04, 13
61.05, 7
61.06, 8
61.07, 13
61.08, 13
61.09, 13
61.1, 11
61.11, 10
61.12, 12
61.13, 14
61.14, 9
61.15, 9
61.16, 9
61.17, 5
61.18, 14
61.19, 7
61.2, 7
61.21, 15
61.22, 4
61.23, 6
61.24, 10
61.25, 8
61.26, 12
61.27, 10
61.28, 10
61.29, 8
61.3, 11
61.31, 15
61.32, 8
61.33, 10
61.34, 10
61.35, 7
61.36, 6
61.37, 10
61.38, 6
61.39, 6
61.4, 8
61.41, 10
61.42, 11
61.43, 9
61.44, 10
61.45, 5
61.46, 10
61.47, 8
61.48, 5
61.49, 5
61.5, 6
61.51, 10
61.52, 6
61.53, 16
61.54, 7
61.55, 12
61.56, 16
61.57, 9
61.58, 9
61.59, 6
61.6, 7
61.61, 13
61.62, 9
61.63, 7
61.64, 7
61.65, 10
61.66, 15
61.67, 8
61.68, 4
61.69, 9
61.7, 7
61.71, 9
61.72, 8
61.73, 10
61.74, 7
61.75, 13
61.76, 9
61.77, 14
61.78, 7
61.79, 6
61.8, 7
61.81, 11
61.82, 14
61.83, 5
61.84, 7
61.85, 5
61.86, 12
61.87, 11
61.88, 5
61.89, 7
61.9, 7
61.91, 4
61.92, 10
61.93, 13
61.94, 11
61.95, 9
61.96, 5
61.97, 5
61.98, 13
61.99, 13
62, 16
62.01, 12
62.02, 10
62.03, 9
62.04, 12
62.05, 15
62.06, 18
62.07, 9
62.08, 11
62.09, 12
62.1, 10
62.11, 4
62.12, 11
62.13, 9
62.14, 7
62.15, 12
62.16, 10
62.17, 9
62.18, 7
62.19, 10
62.2, 6
62.21, 7
62.22, 8
62.23, 4
62.24, 14
62.25, 15
62.26, 15
62.27, 12
62.28, 11
62.29, 10
62.3, 6
62.31, 9
62.32, 4
62.33, 8
62.34, 5
62.35, 6
62.36, 8
62.37, 9
62.38, 10
62.39, 11
62.4, 4
62.41, 9
62.42, 11
62.43, 7
62.44, 6
62.45, 7
62.46, 5
62.47, 9
62.48, 5
62.49, 8
62.5, 9
62.51, 4
62.52, 11
62.53, 17
62.54, 6
62.55, 14
62.56, 8
62.57, 10
62.58, 9
62.59, 8
62.6, 7
62.61, 7
62.62, 10
62.63, 12
62.64, 4
62.65, 3
62.66, 13
62.67, 12
62.68, 5
62.69, 5
62.7, 10
62.71, 6
62.72, 6
62.73, 8
62.74, 11
62.75, 8
62.76, 4
62.77, 8
62.78, 9
62.79, 12
62.8, 7
62.81, 9
62.82, 6
62.83, 9
62.84, 10
62.85, 11
62.86, 9
62.87, 8
62.88, 13
62.89, 14
62.9, 7
62.91, 11
62.92, 5
62.93, 12
62.94, 6
62.95, 8
62.96, 9
62.97, 5
62.98, 8
62.99, 9
63, 16
63.01, 12
63.02, 12
63.03, 14
63.04, 12
63.05, 12
63.06, 8
63.07, 11
63.08, 9
63.09, 8
63.1, 11
63.11, 11
63.12, 6
63.13, 11
63.14, 8
63.15, 9
63.16, 7
63.17, 4
63.18, 5
63.19, 11
63.2, 12
63.21, 9
63.22, 10
63.23, 12
63.24, 16
63.25, 7
63.26, 11
63.27, 8
63.28, 8
63.29, 5
63.3, 7
63.31, 9
63.32, 10
63.33, 12
63.34, 11
63.35, 11
63.36, 6
63.37, 3
63.38, 8
63.39, 6
63.4, 6
63.41, 10
63.42, 10
63.43, 7
63.44, 9
63.45, 8
63.46, 5
63.47, 4
63.48, 12
63.49, 10
63.5, 13
63.51, 6
63.52, 9
63.53, 13
63.54, 12
63.55, 9
63.56, 8
63.57, 13
63.58, 6
63.59, 6
63.6, 7
63.61, 6
63.62, 6
63.63, 16
63.64, 5
63.65, 11
63.66, 11
63.67, 11
63.68, 8
63.69, 11
63.7, 12
63.71, 8
63.72, 11
63.73, 9
63.74, 15
63.75, 12
63.76, 5
63.77, 7
63.78, 8
63.79, 7
63.8, 14
63.81, 13
63.82, 7
63.83, 18
63.84, 7
63.85, 10
63.86, 9
63.87, 13
63.88, 13
63.89, 13
63.9, 13
63.91, 5
63.92, 16
63.93, 12
63.94, 11
63.95, 11
63.96, 9
63.97, 8
63.98, 8
63.99, 11
64, 16
64.01, 8
64.02, 11
64.03, 9
64.04, 6
64.05, 13
64.06, 7
64.07, 4
64.08, 6
64.09, 5
64.1, 10
64.11, 9
64.12, 6
64.13, 6
64.14, 12
64.15, 10
64.16, 11
64.17, 6
64.18, 8
64.19, 15
64.2, 9
64.21, 8
64.22, 8
64.23, 5
64.24, 14
64.25, 13
64.26, 5
64.27, 12
64.28, 11
64.29, 11
64.3, 5
64.31, 10
64.32, 14
64.33, 7
64.34, 10
64.35, 6
64.36, 9
64.37, 8
64.38, 7
64.39, 11
64.4, 12
64.41, 9
64.42, 10
64.43, 8
64.44, 13
64.45, 5
64.46, 9
64.47, 10
64.48, 7
64.49, 10
64.5, 9
64.51, 14
64.52, 4
64.53, 11
64.54, 7
64.55, 6
64.56, 11
64.57, 4
64.58, 8
64.59, 6
64.6, 7
64.61, 13
64.62, 11
64.63, 8
64.64, 14
64.65, 6
64.66, 12
64.67, 9
64.68, 10
64.69, 12
64.7, 11
64.71, 2
64.72, 8
64.73, 12
64.74, 5
64.75, 10
64.76, 12
64.77, 13
64.78, 14
64.79, 16
64.8, 7
64.81, 9
64.82, 2
64.83, 10
64.84, 9
64.85, 10
64.86, 19
64.87, 11
64.88, 9
64.89, 10
64.9, 12
64.91, 4
64.92, 11
64.93, 4
64.94, 8
64.95, 7
64.96, 17
64.97, 6
64.98, 10
64.99, 12
65, 9
65.01, 12
65.02, 9
65.03, 13
65.04, 9
65.05, 13
65.06, 6
65.07, 11
65.08, 9
65.09, 11
65.1, 6
65.11, 17
65.12, 13
65.13, 11
65.14, 8
65.15, 9
65.16, 7
65.17, 7
65.18, 8
65.19, 11
65.2, 13
65.21, 8
65.22, 11
65.23, 9
65.24, 17
65.25, 8
65.26, 10
65.27, 9
65.28, 13
65.29, 7
65.3, 5
65.31, 9
65.32, 7
65.33, 13
65.34, 16
65.35, 6
65.36, 10
65.37, 10
65.38, 8
65.39, 11
65.4, 6
65.41, 8
65.42, 11
65.43, 8
65.44, 8
65.45, 5
65.46, 6
65.47, 6
65.48, 10
65.49, 5
65.5, 13
65.51, 14
65.52, 13
65.53, 10
65.54, 10
65.55, 8
65.56, 19
65.57, 8
65.58, 14
65.59, 12
65.6, 8
65.61, 14
65.62, 9
65.63, 9
65.64, 9
65.65, 11
65.66, 8
65.67, 12
65.68, 11
65.69, 8
65.7, 12
65.71, 7
65.72, 6
65.73, 19
65.74, 11
65.75, 12
65.76, 8
65.77, 11
65.78, 13
65.79, 8
65.8, 13
65.81, 6
65.82, 7
65.83, 12
65.84, 7
65.85, 9
65.86, 13
65.87, 15
65.88, 17
65.89, 12
65.9, 8
65.91, 21
65.92, 14
65.93, 11
65.94, 14
65.95, 11
65.96, 7
65.97, 16
65.98, 9
65.99, 11
66, 11
66.01, 14
66.02, 5
66.03, 16
66.04, 9
66.05, 18
66.06, 12
66.07, 16
66.08, 19
66.09, 15
66.1, 20
66.11, 23
66.12, 23
66.13, 34
66.14, 20
66.15, 32
66.16, 43
66.17, 35
66.18, 42
66.19, 63
66.2, 78
66.21, 75
66.22, 85
66.23, 106
66.24, 103
66.25, 112
66.26, 105
66.27, 85
66.28, 75
66.29, 61
66.3, 70
66.31, 44
66.32, 45
66.33, 42
66.34, 40
66.35, 30
66.36, 26
66.37, 66
66.38, 50
66.39, 60
66.4, 55
66.41, 47
66.42, 59
66.43, 67
66.44, 64
66.45, 51
66.46, 54
66.47, 36
66.48, 32
66.49, 33
66.5, 36
66.51, 25
66.52, 25
66.53, 22
66.54, 19
66.55, 16
66.56, 26
66.57, 12
66.58, 12
66.59, 23
66.6, 12
66.61, 12
66.62, 12
66.63, 9
66.64, 8
66.65, 9
66.66, 10
66.67, 9
66.68, 17
66.69, 14
66.7, 11
66.71, 15
66.72, 12
66.73, 15
66.74, 9
66.75, 9
66.76, 18
66.77, 10
66.78, 7
66.79, 15
66.8, 11
66.81, 9
66.82, 9
66.83, 10
66.84, 14
66.85, 15
66.86, 7
66.87, 14
66.88, 12
66.89, 8
66.9, 11
66.91, 11
66.92, 9
66.93, 8
66.94, 8
66.95, 11
66.96, 14
66.97, 6
66.98, 15
66.99, 9
67, 14
67.01, 11
67.02, 16
67.03, 12
67.04, 12
67.05, 13
67.06, 17
67.07, 10
67.08, 12
67.09, 12
67.1, 6
67.11, 9
67.12, 10
67.13, 13
67.14, 7
67.15, 12
67.16, 4
67.17, 10
67.18, 9
67.19, 16
67.2, 11
67.21, 9
67.22, 4
67.23, 10
67.24, 3
67.25, 12
67.26, 12
67.27, 7
67.28, 12
67.29, 21
67.3, 7
67.31, 13
67.32, 7
67.33, 12
67.34, 7
67.35, 5
67.36, 13
67.37, 12
67.38, 11
67.39, 11
67.4, 8
67.41, 7
67.42, 12
67.43, 6
67.44, 11
67.45, 10
67.46, 5
67.47, 8
67.48, 9
67.49, 15
67.5, 13
67.51, 7
67.52, 11
67.53, 14
67.54, 10
67.55, 10
67.56, 8
67.57, 1
67.58, 11
67.59, 8
67.6, 5
67.61, 10
67.62, 6
67.63, 6
67.64, 10
67.65, 8
67.66, 12
67.67, 11
67.68, 7
67.69, 7
67.7, 10
67.71, 8
67.72, 9
67.73, 8
67.74, 3
67.75, 12
67.76, 7
67.77, 8
67.78, 9
67.79, 9
67.8, 3
67.81, 7
67.82, 11
67.83, 12
67.84, 6
67.85, 9
67.86, 13
67.87, 12
67.88, 11
67.89, 8
67.9, 12
67.91, 11
67.92, 8
67.93, 8
67.94, 17
67.95, 13
67.96, 7
67.97, 4
67.98, 7
67.99, 7
68, 7
68.01, 10
68.02, 7
68.03, 7
68.04, 12
68.05, 3
68.06, 6
68.07, 8
68.08, 4
68.09, 12
68.1, 11
68.11, 11
68.12, 5
68.13, 10
68.14, 10
68.15, 6
68.16, 8
68.17, 13
68.18, 9
68.19, 3
68.2, 3
68.21, 10
68.22, 14
68.23, 8
68.24, 8
68.25, 12
68.26, 8
68.27, 7
68.28, 12
68.29, 9
68.3, 10
68.31, 17
68.32, 10
68.33, 10
68.34, 6
68.35, 15
68.36, 7
68.37, 12
68.38, 6
68.39, 14
68.4, 14
68.41, 8
68.42, 7
68.43, 19
68.44, 9
68.45, 9
68.46, 6
68.47, 10
68.48, 8
68.49, 8
68.5, 8
68.51, 5
68.52, 15
68.53, 11
68.54, 13
68.55, 13
68.56, 11
68.57, 12
68.58, 3
68.59, 8
68.6, 8
68.61, 8
68.62, 8
68.63, 12
68.64, 8
68.65, 9
68.66, 6
68.67, 6
68.68, 7
68.69, 8
68.7, 8
68.71, 6
68.72, 10
68.73, 6
68.74, 13
68.75, 14
68.76, 10
68.77, 6
68.78, 13
68.79, 13
68.8, 9
68.81, 9
68.82, 15
68.83, 6
68.84, 7
68.85, 9
68.86, 4
68.87, 6
68.88, 11
68.89, 10
68.9, 11
68.91, 17
68.92, 15
68.93, 12
68.94, 11
68.95, 7
68.96, 7
68.97, 9
68.98, 11
68.99, 11
69, 12
69.01, 8
69.02, 8
69.03, 9
69.04, 9
69.05, 11
69.06, 17
69.07, 10
69.08, 10
69.09, 11
69.1, 14
69.11, 10
69.12, 10
69.13, 12
69.14, 13
69.15, 5
69.16, 11
69.17, 9
69.18, 13
69.19, 15
69.2, 13
69.21, 9
69.22, 11
69.23, 14
69.24, 10
69.25, 8
69.26, 5
69.27, 11
69.28, 6
69.29, 8
69.3, 12
69.31, 7
69.32, 16
69.33, 8
69.34, 7
69.35, 10
69.36, 11
69.37, 8
69.38, 13
69.39, 13
69.4, 14
69.41, 9
69.42, 12
69.43, 8
69.44, 8
69.45, 15
69.46, 12
69.47, 8
69.48, 10
69.49, 13
69.5, 13
69.51, 7
69.52, 9
69.53, 13
69.54, 11
69.55, 9
69.56, 12
69.57, 13
69.58, 8
69.59, 8
69.6, 11
69.61, 7
69.62, 13
69.63, 10
69.64, 8
69.65, 8
69.66, 7
69.67, 7
69.68, 6
69.69, 10
69.7, 6
69.71, 5
69.72, 11
69.73, 10
69.74, 9
69.75, 11
69.76, 13
69.77, 8
69.78, 11
69.79, 8
69.8, 7
69.81, 10
69.82, 10
69.83, 7
69.84, 5
69.85, 8
69.86, 12
69.87, 8
69.88, 10
69.89, 8
69.9, 8
69.91, 17
69.92, 14
69.93, 3
69.94, 11
69.95, 15
69.96, 7
69.97, 5
69.98, 12
69.99, 11
70, 10
70.01, 15
70.02, 7
70.03, 5
70.04, 7
70.05, 9
70.06, 10
70.07, 8
70.08, 9
70.09, 12
70.1, 6
70.11, 13
70.12, 7
70.13, 13
70.14, 8
70.15, 13
70.16, 6
70.17, 10
70.18, 8
70.19, 7
70.2, 9
70.21, 11
70.22, 11
70.23, 13
70.24, 10
70.25, 7
70.26, 15
70.27, 6
70.28, 12
70.29, 9
70.3, 13
70.31, 12
70.32, 8
70.33, 7
70.34, 5
70.35, 11
70.36, 10
70.37, 9
70.38, 15
70.39, 6
70.4, 4
70.41, 10
70.42, 11
70.43, 10
70.44, 7
70.45, 6
70.46, 7
70.47, 10
70.48, 8
70.49, 15
70.5, 8
70.51, 14
70.52, 8
70.53, 6
70.54, 6
70.55, 11
70.56, 9
70.57, 9
70.58, 7
70.59, 11
70.6, 11
70.61, 10
70.62, 5
70.63, 18
70.64, 11
70.65, 10
70.66, 5
70.67, 5
70.68, 11
70.69, 11
70.7, 11
70.71, 10
70.72, 7
70.73, 8
70.74, 10
70.75, 6
70.76, 9
70.77, 6
70.78, 12
70.79, 11
70.8, 10
70.81, 9
70.82, 11
70.83, 11
70.84, 13
70.85, 10
70.86, 7
70.87, 9
70.88, 7
70.89, 13
70.9, 6
70.91, 11
70.92, 12
70.93, 11
70.94, 8
70.95, 11
70.96, 8
70.97, 9
70.98, 8
70.99, 10
71, 9
71.01, 14
71.02, 10
71.03, 7
71.04, 9
71.05, 7
71.06, 9
71.07, 10
71.08, 9
71.09, 12
71.1, 8
71.11, 8
71.12, 16
71.13, 7
71.14, 8
71.15, 5
71.16, 6
71.17, 11
71.18, 8
71.19, 16
71.2, 8
71.21, 9
71.22, 7
71.23, 12
71.24, 10
71.25, 10
71.26, 13
71.27, 14
71.28, 20
71.29, 11
71.3, 7
71.31, 9
71.32, 10
71.33, 6
71.34, 8
71.35, 11
71.36, 7
71.37, 10
71.38, 10
71.39, 5
71.4, 9
71.41, 11
71.42, 8
71.43, 11
71.44, 15
71.45, 10
71.46, 12
71.47, 10
71.48, 8
71.49, 14
71.5, 6
71.51, 11
71.52, 10
71.53, 3
71.54, 6
71.55, 5
71.56, 6
71.57, 10
71.58, 5
71.59, 13
71.6, 5
71.61, 9
71.62, 7
71.63, 6
71.64, 4
71.65, 14
71.66, 7
71.67, 9
71.68, 17
71.69, 6
71.7, 10
71.71, 8
71.72, 8
71.73, 10
71.74, 10
71.75, 10
71.76, 16
71.77, 11
71.78, 9
71.79, 6
71.8, 9
71.81, 5
71.82, 8
71.83, 7
71.84, 9
71.85, 9
71.86, 11
71.87, 7
71.88, 12
71.89, 5
71.9, 6
71.91, 10
71.92, 8
71.93, 12
71.94, 14
71.95, 2
71.96, 14
71.97, 18
71.98, 11
71.99, 10
72, 12
72.01, 14
72.02, 9
72.03, 7
72.04, 9
72.05, 10
72.06, 8
72.07, 9
72.08, 11
72.09, 8
72.1, 9
72.11, 3
72.12, 13
72.13, 7
72.14, 7
72.15, 8
72.16, 10
72.17, 6
72.18, 10
72.19, 16
72.2, 8
72.21, 12
72.22, 17
72.23, 9
72.24, 10
72.25, 7
72.26, 11
72.27, 9
72.28, 15
72.29, 10
72.3, 7
72.31, 8
72.32, 9
72.33, 8
72.34, 9
72.35, 11
72.36, 10
72.37, 16
72.38, 7
72.39, 8
72.4, 8
72.41, 11
72.42, 13
72.43, 13
72.44, 13
72.45, 5
72.46, 11
72.47, 17
72.48, 9
72.49, 17
72.5, 12
72.51, 12
72.52, 5
72.53, 9
72.54, 9
72.55, 8
72.56, 12
72.57, 9
72.58, 9
72.59, 6
72.6, 4
72.61, 8
72.62, 10
72.63, 5
72.64, 10
72.65, 6
72.66, 13
72.67, 13
72.68, 14
72.69, 10
72.7, 10
72.71, 8
72.72, 11
72.73, 9
72.74, 7
72.75, 8
72.76, 8
72.77, 8
72.78, 13
72.79, 9
72.8, 11
72.81, 10
72.82, 12
72.83, 7
72.84, 11
72.85, 7
72.86, 10
72.87, 10
72.88, 14
72.89, 8
72.9, 15
72.91, 8
72.92, 10
72.93, 8
72.94, 11
72.95, 8
72.96, 17
72.97, 16
72.98, 13
72.99, 7
73, 11
73.01, 13
73.02, 11
73.03, 16
73.04, 24
73.05, 11
73.06, 18
73.07, 22
73.08, 26
73.09, 15
73.1, 17
73.11, 21
73.12, 21
73.13, 20
73.14, 16
73.15, 18
73.16, 13
73.17, 16
73.18, 17
73.19, 16
73.2, 14
73.21, 13
73.22, 13
73.23, 22
73.24, 18
73.25, 19
73.26, 21
73.27, 20
73.28, 18
73.29, 17
73.3, 20
73.31, 12
73.32, 11
73.33, 13
73.34, 11
73.35, 11
73.36, 10
73.37, 10
73.38, 9
73.39, 14
73.4, 10
73.41, 8
73.42, 17
73.43, 13
73.44, 7
73.45, 8
73.46, 11
73.47, 10
73.48, 14
73.49, 12
73.5, 13
73.51, 12
73.52, 7
73.53, 8
73.54, 8
73.55, 12
73.56, 12
73.57, 7
73.58, 14
73.59, 6
73.6, 13
73.61, 16
73.62, 11
73.63, 11
73.64, 10
73.65, 6
73.66, 12
73.67, 8
73.68, 10
73.69, 7
73.7, 10
73.71, 14
73.72, 9
73.73, 13
73.74, 10
73.75, 10
73.76, 15
73.77, 13
73.78, 11
73.79, 11
73.8, 12
73.81, 8
73.82, 14
73.83, 8
73.84, 9
73.85, 7
73.86, 8
73.87, 9
73.88, 12
73.89, 10
73.9, 6
73.91, 13
73.92, 8
73.93, 13
73.94, 8
73.95, 5
73.96, 8
73.97, 6
73.98, 12
73.99, 11
74, 7
74.01, 12
74.02, 10
74.03, 13
74.04, 11
74.05, 11
74.06, 14
74.07, 7
74.08, 10
74.09, 7
74.1, 11
74.11, 10
74.12, 10
74.13, 8
74.14, 16
74.15, 13
74.16, 11
74.17, 9
74.18, 12
74.19, 11
74.2, 8
74.21, 8
74.22, 7
74.23, 10
74.24, 9
74.25, 12
74.26, 12
74.27, 10
74.28, 14
74.29, 12
74.3, 9
74.31, 9
74.32, 11
74.33, 10
74.34, 9
74.35, 11
74.36, 12
74.37, 14
74.38, 10
74.39, 8
74.4, 14
74.41, 10
74.42, 16
74.43, 15
74.44, 14
74.45, 5
74.46, 10
74.47, 11
74.48, 17
74.49, 15
74.5, 14
74.51, 10
74.52, 8
74.53, 13
74.54, 13
74.55, 13
74.56, 20
74.57, 12
74.58, 11
74.59, 5
74.6, 13
74.61, 6
74.62, 9
74.63, 4
74.64, 16
74.65, 10
74.66, 14
74.67, 7
74.68, 9
74.69, 14
74.7, 18
74.71, 17
74.72, 14
74.73, 17
74.74, 22
74.75, 7
74.76, 11
74.77, 18
74.78, 18
74.79, 6
74.8, 7
74.81, 8
74.82, 12
74.83, 7
74.84, 11
74.85, 17
74.86, 12
74.87, 24
74.88, 10
74.89, 15
74.9, 10
74.91, 25
74.92, 10
74.93, 11
74.94, 10
74.95, 11
74.96, 16
74.97, 17
74.98, 12
74.99, 17
75, 20
75.01, 14
75.02, 9
75.03, 13
75.04, 15
75.05, 24
75.06, 11
75.07, 21
75.08, 19
75.09, 10
75.1, 18
75.11, 16
75.12, 19
75.13, 16
75.14, 30
75.15, 35
75.16, 27
75.17, 48
75.18, 34
75.19, 49
75.2, 66
75.21, 67
75.22, 90
75.23, 80
75.24, 101
75.25, 118
75.26, 132
75.27, 157
75.28, 182
75.29, 162
75.3, 178
75.31, 163
75.32, 174
75.33, 164
75.34, 150
75.35, 148
75.36, 121
75.37, 118
75.38, 101
75.39, 88
75.4, 90
75.41, 65
75.42, 79
75.43, 80
75.44, 62
75.45, 89
75.46, 69
75.47, 64
75.48, 94
75.49, 79
75.5, 99
75.51, 94
75.52, 90
75.53, 91
75.54, 90
75.55, 82
75.56, 97
75.57, 67
75.58, 65
75.59, 48
75.6, 49
75.61, 44
75.62, 52
75.63, 43
75.64, 32
75.65, 39
75.66, 43
75.67, 23
75.68, 24
75.69, 24
75.7, 18
75.71, 19
75.72, 19
75.73, 16
75.74, 14
75.75, 14
75.76, 14
75.77, 18
75.78, 15
75.79, 18
75.8, 17
75.81, 14
75.82, 21
75.83, 16
75.84, 12
75.85, 12
75.86, 10
75.87, 12
75.88, 14
75.89, 14
75.9, 16
75.91, 9
75.92, 13
75.93, 12
75.94, 8
75.95, 6
75.96, 8
75.97, 15
75.98, 11
75.99, 12
76, 9
76.01, 15
76.02, 8
76.03, 12
76.04, 19
76.05, 10
76.06, 11
76.07, 7
76.08, 8
76.09, 15
76.1, 10
76.11, 9
76.12, 9
76.13, 11
76.14, 12
76.15, 16
76.16, 11
76.17, 7
76.18, 10
76.19, 10
76.2, 15
76.21, 16
76.22, 16
76.23, 11
76.24, 18
76.25, 10
76.26, 18
76.27, 12
76.28, 7
76.29, 16
76.3, 11
76.31, 9
76.32, 5
76.33, 6
76.34, 12
76.35, 16
76.36, 12
76.37, 12
76.38, 8
76.39, 7
76.4, 12
76.41, 14
76.42, 11
76.43, 12
76.44, 11
76.45, 11
76.46, 17
76.47, 8
76.48, 9
76.49, 10
76.5, 7
76.51, 14
76.52, 13
76.53, 8
76.54, 10
76.55, 12
76.56, 6
76.57, 13
76.58, 14
76.59, 10
76.6, 7
76.61, 10
76.62, 12
76.63, 9
76.64, 11
76.65, 12
76.66, 10
76.67, 12
76.68, 17
76.69, 9
76.7, 11
76.71, 11
76.72, 4
76.73, 10
76.74, 10
76.75, 13
76.76, 10
76.77, 10
76.78, 17
76.79, 16
76.8, 7
76.81, 11
76.82, 10
76.83, 5
76.84, 10
76.85, 9
76.86, 11
76.87, 12
76.88, 8
76.89, 15
76.9, 9
76.91, 14
76.92, 6
76.93, 14
76.94, 12
76.95, 12
76.96, 8
76.97, 11
76.98, 13
76.99, 18
77, 11
77.01, 11
77.02, 13
77.03, 9
77.04, 13
77.05, 11
77.06, 7
77.07, 10
77.08, 9
77.09, 13
77.1, 10
77.11, 13
77.12, 9
77.13, 13
77.14, 7
77.15, 5
77.16, 10
77.17, 9
77.18, 9
77.19, 7
77.2, 9
77.21, 5
77.22, 4
77.23, 12
77.24, 12
77.25, 8
77.26, 11
77.27, 8
77.28, 8
77.29, 7
77.3, 7
77.31, 18
77.32, 10
77.33, 14
77.34, 19
77.35, 8
77.36, 10
77.37, 12
77.38, 6
77.39, 9
77.4, 12
77.41, 8
77.42, 10
77.43, 6
77.44, 10
77.45, 13
77.46, 8
77.47, 12
77.48, 10
77.49, 9
77.5, 17
77.51, 10
77.52, 12
77.53, 12
77.54, 9
77.55, 11
77.56, 16
77.57, 10
77.58, 11
77.59, 8
77.6, 6
77.61, 7
77.62, 9
77.63, 8
77.64, 7
77.65, 13
77.66, 6
77.67, 10
77.68, 17
77.69, 11
77.7, 9
77.71, 10
77.72, 12
77.73, 9
77.74, 16
77.75, 9
77.76, 10
77.77, 13
77.78, 16
77.79, 11
77.8, 14
77.81, 13
77.82, 10
77.83, 10
77.84, 7
77.85, 7
77.86, 10
77.87, 14
77.88, 14
77.89, 2
77.9, 7
77.91, 11
77.92, 11
77.93, 13
77.94, 8
77.95, 16
77.96, 9
77.97, 13
77.98, 10
77.99, 11
78, 9
78.01, 11
78.02, 12
78.03, 19
78.04, 7
78.05, 11
78.06, 6
78.07, 9
78.08, 13
78.09, 6
78.1, 10
78.11, 14
78.12, 8
78.13, 9
78.14, 9
78.15, 8
78.16, 6
78.17, 8
78.18, 9
78.19, 7
78.2, 3
78.21, 10
78.22, 14
78.23, 10
78.24, 8
78.25, 8
78.26, 11
78.27, 15
78.28, 15
78.29, 13
78.3, 12
78.31, 8
78.32, 9
78.33, 6
78.34, 10
78.35, 10
78.36, 13
78.37, 12
78.38, 16
78.39, 8
78.4, 10
78.41, 14
78.42, 9
78.43, 12
78.44, 12
78.45, 10
78.46, 6
78.47, 8
78.48, 17
78.49, 12
78.5, 7
78.51, 13
78.52, 12
78.53, 5
78.54, 9
78.55, 14
78.56, 8
78.57, 10
78.58, 8
78.59, 9
78.6, 7
78.61, 11
78.62, 8
78.63, 8
78.64, 10
78.65, 10
78.66, 17
78.67, 12
78.68, 16
78.69, 12
78.7, 9
78.71, 18
78.72, 8
78.73, 13
78.74, 9
78.75, 13
78.76, 6
78.77, 15
78.78, 11
78.79, 5
78.8, 9
78.81, 15
78.82, 12
78.83, 12
78.84, 9
78.85, 12
78.86, 8
78.87, 14
78.88, 11
78.89, 6
78.9, 8
78.91, 10
78.92, 16
78.93, 9
78.94, 8
78.95, 8
78.96, 11
78.97, 8
78.98, 16
78.99, 11
79, 14
79.01, 5
79.02, 11
79.03, 12
79.04, 12
79.05, 15
79.06, 10
79.07, 6
79.08, 10
79.09, 5
79.1, 14
79.11, 15
79.12, 10
79.13, 12
79.14, 15
79.15, 11
79.16, 11
79.17, 7
79.18, 5
79.19, 6
79.2, 12
79.21, 11
79.22, 14
79.23, 12
79.24, 12
79.25, 7
79.26, 13
79.27, 14
79.28, 11
79.29, 9
79.3, 12
79.31, 3
79.32, 6
79.33, 11
79.34, 8
79.35, 5
79.36, 9
79.37, 12
79.38, 5
79.39, 14
79.4, 11
79.41, 14
79.42, 14
79.43, 9
79.44, 8
79.45, 5
79.46, 13
79.47, 11
79.48, 9
79.49, 15
79.5, 9
79.51, 7
79.52, 11
79.53, 7
79.54, 10
79.55, 8
79.56, 9
79.57, 5
79.58, 11
79.59, 8
79.6, 8
79.61, 11
79.62, 5
79.63, 10
79.64, 7
79.65, 11
79.66, 15
79.67, 9
79.68, 10
79.69, 9
79.7, 7
79.71, 9
79.72, 9
79.73, 9
79.74, 11
79.75, 8
79.76, 5
79.77, 12
79.78, 9
79.79, 9
79.8, 5
79.81, 11
79.82, 6
79.83, 4
79.84, 9
79.85, 9
79.86, 10
79.87, 8
79.88, 13
79.89, 14
79.9, 8
79.91, 6
79.92, 8
79.93, 10
79.94, 8
79.95, 12
79.96, 7
79.97, 10
79.98, 8
79.99, 3
80, 9
80.01, 17
80.02, 4
80.03, 10
80.04, 12
80.05, 14
80.06, 18
80.07, 11
80.08, 15
80.09, 7
80.1, 12
80.11, 12
80.12, 12
80.13, 11
80.14, 9
80.15, 12
80.16, 9
80.17, 5
80.18, 10
80.19, 7
80.2, 14
80.21, 9
80.22, 16
80.23, 10
80.24, 14
80.25, 7
80.26, 8
80.27, 13
80.28, 6
80.29, 8
80.3, 10
80.31, 6
80.32, 11
80.33, 9
80.34, 7
80.35, 15
80.36, 15
80.37, 14
80.38, 10
80.39, 8
80.4, 10
80.41, 8
80.42, 11
80.43, 10
80.44, 10
80.45, 4
80.46, 11
80.47, 10
80.48, 9
80.49, 5
80.5, 10
80.51, 13
80.52, 10
80.53, 6
80.54, 5
80.55, 9
80.56, 6
80.57, 5
80.58, 8
80.59, 9
80.6, 14
80.61, 16
80.62, 5
80.63, 10
80.64, 9
80.65, 10
80.66, 8
80.67, 14
80.68, 7
80.69, 12
80.7, 14
80.71, 16
80.72, 11
80.73, 14
80.74, 8
80.75, 11
80.76, 5
80.77, 9
80.78, 8
80.79, 8
80.8, 18
80.81, 13
80.82, 10
80.83, 8
80.84, 11
80.85, 12
80.86, 12
80.87, 11
80.88, 5
80.89, 14
80.9, 5
80.91, 14
80.92, 11
80.93, 5
80.94, 11
80.95, 11
80.96, 10
80.97, 12
80.98, 14
80.99, 11
81, 12
81.01, 8
81.02, 8
81.03, 12
81.04, 12
81.05, 7
81.06, 9
81.07, 12
81.08, 11
81.09, 7
81.1, 10
81.11, 10
81.12, 8
81.13, 8
81.14, 11
81.15, 10
81.16, 10
81.17, 10
81.18, 8
81.19, 17
81.2, 5
81.21, 18
81.22, 7
81.23, 12
81.24, 6
81.25, 9
81.26, 7
81.27, 7
81.28, 10
81.29, 8
81.3, 7
81.31, 11
81.32, 5
81.33, 11
81.34, 12
81.35, 4
81.36, 15
81.37, 7
81.38, 12
81.39, 16
81.4, 8
81.41, 13
81.42, 12
81.43, 11
81.44, 8
81.45, 13
81.46, 3
81.47, 11
81.48, 7
81.49, 10
81.5, 8
81.51, 10
81.52, 15
81.53, 11
81.54, 12
81.55, 6
81.56, 11
81.57, 10
81.58, 9
81.59, 11
81.6, 19
81.61, 10
81.62, 10
81.63, 8
81.64, 14
81.65, 12
81.66, 19
81.67, 12
81.68, 19
81.69, 8
81.7, 8
81.71, 9
81.72, 17
81.73, 10
81.74, 6
81.75, 16
81.76, 3
81.77, 5
81.78, 10
81.79, 12
81.8, 12
81.81, 8
81.82, 14
81.83, 11
81.84, 11
81.85, 12
81.86, 13
81.87, 13
81.88, 7
81.89, 11
81.9, 13
81.91, 11
81.92, 7
81.93, 15
81.94, 7
81.95, 8
81.96, 13
81.97, 9
81.98, 8
81.99, 10
82, 15
82.01, 8
82.02, 9
82.03, 9
82.04, 7
82.05, 8
82.06, 7
82.07, 8
82.08, 16
82.09, 10
82.1, 6
82.11, 8
82.12, 10
82.13, 7
82.14, 18
82.15, 7
82.16, 17
82.17, 8
82.18, 11
82.19, 15
82.2, 9
82.21, 12
82.22, 10
82.23, 5
82.24, 6
82.25, 7
82.26, 13
82.27, 12
82.28, 8
82.29, 13
82.3, 6
82.31, 8
82.32, 4
82.33, 7
82.34, 11
82.35, 12
82.36, 11
82.37, 7
82.38, 15
82.39, 13
82.4, 11
82.41, 9
82.42, 11
82.43, 12
82.44, 20
82.45, 9
82.46, 10
82.47, 14
82.48, 11
82.49, 11
82.5, 7
82.51, 9
82.52, 11
82.53, 12
82.54, 9
82.55, 9
82.56, 18
82.57, 6
82.58, 8
82.59, 12
82.6, 9
82.61, 9
82.62, 13
82.63, 6
82.64, 11
82.65, 16
82.66, 13
82.67, 7
82.68, 5
82.69, 8
82.7, 10
82.71, 9
82.72, 13
82.73, 13
82.74, 7
82.75, 12
82.76, 12
82.77, 14
82.78, 15
82.79, 13
82.8, 14
82.81, 9
82.82, 10
82.83, 8
82.84, 15
82.85, 5
82.86, 14
82.87, 13
82.88, 7
82.89, 10
82.9, 16
82.91, 5
82.92, 14
82.93, 10
82.94, 13
82.95, 12
82.96, 8
82.97, 6
82.98, 8
82.99, 10
83, 10
83.01, 11
83.02, 12
83.03, 4
83.04, 12
83.05, 9
83.06, 12
83.07, 11
83.08, 12
83.09, 11
83.1, 15
83.11, 13
83.12, 14
83.13, 11
83.14, 10
83.15, 12
83.16, 6
83.17, 8
83.18, 8
83.19, 9
83.2, 14
83.21, 16
83.22, 8
83.23, 7
83.24, 13
83.25, 12
83.26, 8
83.27, 15
83.28, 8
83.29, 13
83.3, 15
83.31, 11
83.32, 8
83.33, 8
83.34, 13
83.35, 18
83.36, 11
83.37, 8
83.38, 11
83.39, 17
83.4, 9
83.41, 11
83.42, 15
83.43, 11
83.44, 9
83.45, 12
83.46, 11
83.47, 10
83.48, 13
83.49, 15
83.5, 8
83.51, 15
83.52, 12
83.53, 7
83.54, 14
83.55, 18
83.56, 19
83.57, 10
83.58, 3
83.59, 13
83.6, 15
83.61, 11
83.62, 13
83.63, 10
83.64, 15
83.65, 13
83.66, 15
83.67, 10
83.68, 18
83.69, 9
83.7, 19
83.71, 14
83.72, 12
83.73, 13
83.74, 17
83.75, 15
83.76, 11
83.77, 16
83.78, 22
83.79, 19
83.8, 22
83.81, 22
83.82, 17
83.83, 26
83.84, 22
83.85, 25
83.86, 30
83.87, 30
83.88, 37
83.89, 41
83.9, 43
83.91, 42
83.92, 67
83.93, 81
83.94, 72
83.95, 79
83.96, 93
83.97, 93
83.98, 101
83.99, 123
84, 98
84.01, 100
84.02, 84
84.03, 87
84.04, 110
84.05, 94
84.06, 70
84.07, 72
84.08, 60
84.09, 66
84.1, 51
84.11, 43
84.12, 45
84.13, 54
84.14, 52
84.15, 48
84.16, 53
84.17, 48
84.18, 51
84.19, 53
84.2, 51
84.21, 54
84.22, 54
84.23, 60
84.24, 62
84.25, 50
84.26, 52
84.27, 55
84.28, 53
84.29, 57
84.3, 54
84.31, 55
84.32, 37
84.33, 41
84.34, 36
84.35, 27
84.36, 30
84.37, 33
84.38, 24
84.39, 27
84.4, 23
84.41, 15
84.42, 17
84.43, 18
84.44, 16
84.45, 17
84.46, 13
84.47, 16
84.48, 21
84.49, 13
84.5, 14
84.51, 20
84.52, 17
84.53, 21
84.54, 12
84.55, 12
84.56, 10
84.57, 10
84.58, 18
84.59, 7
84.6, 20
84.61, 13
84.62, 11
84.63, 11
84.64, 13
84.65, 12
84.66, 12
84.67, 16
84.68, 15
84.69, 17
84.7, 12
84.71, 9
84.72, 13
84.73, 11
84.74, 15
84.75, 13
84.76, 13
84.77, 16
84.78, 13
84.79, 13
84.8, 7
84.81, 11
84.82, 10
84.83, 18
84.84, 7
84.85, 10
84.86, 9
84.87, 11
84.88, 8
84.89, 8
84.9, 15
84.91, 17
84.92, 6
84.93, 12
84.94, 10
84.95, 4
84.96, 17
84.97, 8
84.98, 7
84.99, 9
85, 13
85.01, 15
85.02, 5
85.03, 8
85.04, 16
85.05, 9
85.06, 11
85.07, 9
85.08, 6
85.09, 13
85.1, 16
85.11, 8
85.12, 12
85.13, 15
85.14, 7
85.15, 10
85.16, 10
85.17, 10
85.18, 10
85.19, 7
85.2, 10
85.21, 9
85.22, 14
85.23, 9
85.24, 6
85.25, 8
85.26, 5
85.27, 11
85.28, 6
85.29, 12
85.3, 12
85.31, 6
85.32, 6
85.33, 17
85.34, 7
85.35, 9
85.36, 9
85.37, 9
85.38, 14
85.39, 9
85.4, 9
85.41, 14
85.42, 13
85.43, 7
85.44, 3
85.45, 16
85.46, 10
85.47, 10
85.48, 11
85.49, 10
85.5, 9
85.51, 8
85.52, 11
85.53, 9
85.54, 8
85.55, 9
85.56, 9
85.57, 10
85.58, 5
85.59, 11
85.6, 6
85.61, 16
85.62, 6
85.63, 12
85.64, 12
85.65, 11
85.66, 8
85.67, 11
85.68, 14
85.69, 8
85.7, 8
85.71, 7
85.72, 8
85.73, 15
85.74, 5
85.75, 12
85.76, 9
85.77, 5
85.78, 16
85.79, 5
85.8, 10
85.81, 6
85.82, 6
85.83, 14
85.84, 16
85.85, 9
85.86, 5
85.87, 4
85.88, 10
85.89, 11
85.9, 7
85.91, 5
85.92, 8
85.93, 13
85.94, 16
85.95, 7
85.96, 10
85.97, 10
85.98, 10
85.99, 11
86, 11
86.01, 12
86.02, 7
86.03, 19
86.04, 19
86.05, 9
86.06, 6
86.07, 8
86.08, 8
86.09, 9
86.1, 15
86.11, 11
86.12, 14
86.13, 2
86.14, 9
86.15, 16
86.16, 8
86.17, 11
86.18, 9
86.19, 11
86.2, 11
86.21, 9
86.22, 6
86.23, 2
86.24, 6
86.25, 11
86.26, 6
86.27, 7
86.28, 14
86.29, 11
86.3, 3
86.31, 15
86.32, 11
86.33, 14
86.34, 13
86.35, 9
86.36, 10
86.37, 9
86.38, 7
86.39, 9
86.4, 16
86.41, 11
86.42, 11
86.43, 7
86.44, 17
86.45, 9
86.46, 9
86.47, 6
86.48, 8
86.49, 5
86.5, 13
86.51, 10
86.52, 10
86.53, 8
86.54, 11
86.55, 7
86.56, 14
86.57, 12
86.58, 8
86.59, 13
86.6, 10
86.61, 11
86.62, 10
86.63, 8
86.64, 11
86.65, 13
86.66, 15
86.67, 12
86.68, 12
86.69, 11
86.7, 13
86.71, 13
86.72, 10
86.73, 7
86.74, 10
86.75, 16
86.76, 13
86.77, 11
86.78, 10
86.79, 18
86.8, 6
86.81, 9
86.82, 4
86.83, 15
86.84, 8
86.85, 9
86.86, 10
86.87, 9
86.88, 10
86.89, 9
86.9, 9
86.91, 10
86.92, 13
86.93, 13
86.94, 6
86.95, 9
86.96, 9
86.97, 8
86.98, 8
86.99, 9
87, 10
87.01, 11
87.02, 15
87.03, 14
87.04, 8
87.05, 9
87.06, 6
87.07, 13
87.08, 13
87.09, 9
87.1, 17
87.11, 8
87.12, 9
87.13, 3
87.14, 5
87.15, 12
87.16, 7
87.17, 5
87.18, 8
87.19, 13
87.2, 8
87.21, 7
87.22, 13
87.23, 10
87.24, 13
87.25, 11
87.26, 8
87.27, 7
87.28, 9
87.29, 18
87.3, 17
87.31, 9
87.32, 13
87.33, 9
87.34, 12
87.35, 11
87.36, 6
87.37, 5
87.38, 9
87.39, 15
87.4, 8
87.41, 12
87.42, 6
87.43, 11
87.44, 5
87.45, 11
87.46, 7
87.47, 13
87.48, 9
87.49, 8
87.5, 7
87.51, 15
87.52, 11
87.53, 7
87.54, 7
87.55, 8
87.56, 5
87.57, 11
87.58, 13
87.59, 8
87.6, 4
87.61, 8
87.62, 11
87.63, 9
87.64, 9
87.65, 6
87.66, 9
87.67, 14
87.68, 9
87.69, 11
87.7, 8
87.71, 10
87.72, 9
87.73, 11
87.74, 9
87.75, 9
87.76, 10
87.77, 7
87.78, 9
87.79, 5
87.8, 6
87.81, 8
87.82, 11
87.83, 10
87.84, 11
87.85, 9
87.86, 17
87.87, 4
87.88, 12
87.89, 13
87.9, 11
87.91, 11
87.92, 11
87.93, 8
87.94, 7
87.95, 8
87.96, 13
87.97, 4
87.98, 13
87.99, 8
88, 10
88.01, 10
88.02, 5
88.03, 10
88.04, 13
88.05, 8
88.06, 6
88.07, 11
88.08, 9
88.09, 9
88.1, 7
88.11, 8
88.12, 11
88.13, 12
88.14, 9
88.15, 6
88.16, 7
88.17, 7
88.18, 11
88.19, 7
88.2, 13
88.21, 14
88.22, 12
88.23, 7
88.24, 14
88.25, 13
88.26, 11
88.27, 13
88.28, 11
88.29, 6
88.3, 8
88.31, 17
88.32, 9
88.33, 9
88.34, 10
88.35, 13
88.36, 7
88.37, 10
88.38, 7
88.39, 5
88.4, 15
88.41, 1
88.42, 7
88.43, 9
88.44, 8
88.45, 5
88.46, 12
88.47, 10
88.48, 8
88.49, 8
88.5, 8
88.51, 5
88.52, 12
88.53, 11
88.54, 10
88.55, 14
88.56, 6
88.57, 9
88.58, 14
88.59, 7
88.6, 7
88.61, 9
88.62, 6
88.63, 12
88.64, 7
88.65, 17
88.66, 6
88.67, 14
88.68, 17
88.69, 16
88.7, 8
88.71, 10
88.72, 4
88.73, 9
88.74, 8
88.75, 12
88.76, 9
88.77, 10
88.78, 11
88.79, 9
88.8, 14
88.81, 12
88.82, 20
88.83, 13
88.84, 11
88.85, 9
88.86, 7
88.87, 6
88.88, 11
88.89, 8
88.9, 12
88.91, 10
88.92, 9
88.93, 11
88.94, 9
88.95, 10
88.96, 10
88.97, 10
88.98, 11
88.99, 7
89, 14
89.01, 11
89.02, 11
89.03, 7
89.04, 10
89.05, 9
89.06, 9
89.07, 11
89.08, 9
89.09, 10
89.1, 7
89.11, 12
89.12, 6
89.13, 3
89.14, 8
89.15, 6
89.16, 12
89.17, 6
89.18, 11
89.19, 12
89.2, 10
89.21, 9
89.22, 11
89.23, 10
89.24, 9
89.25, 8
89.26, 6
89.27, 9
89.28, 11
89.29, 17
89.3, 10
89.31, 12
89.32, 16
89.33, 8
89.34, 6
89.35, 12
89.36, 12
89.37, 7
89.38, 13
89.39, 5
89.4, 3
89.41, 6
89.42, 9
89.43, 13
89.44, 8
89.45, 8
89.46, 9
89.47, 14
89.48, 12
89.49, 7
89.5, 9
89.51, 13
89.52, 2
89.53, 10
89.54, 8
89.55, 8
89.56, 13
89.57, 8
89.58, 10
89.59, 12
89.6, 10
89.61, 8
89.62, 9
89.63, 16
89.64, 11
89.65, 12
89.66, 7
89.67, 15
89.68, 9
89.69, 9
89.7, 14
89.71, 13
89.72, 8
89.73, 17
89.74, 6
89.75, 6
89.76, 7
89.77, 6
89.78, 14
89.79, 12
89.8, 13
89.81, 9
89.82, 8
89.83, 11
89.84, 13
89.85, 13
89.86, 8
89.87, 11
89.88, 8
89.89, 11
89.9, 8
89.91, 14
89.92, 11
89.93, 4
89.94, 15
89.95, 3
89.96, 8
89.97, 10
89.98, 8
89.99, 7
90, 16
##END=



